
1.61

1.61

1.60

1.59

1.59

1.58

1.59

1.61

1.62

1.64

1.65

1.66

1.66

1.63

1.57

1.52

1.63

1.63

1.67

1.60

1.54

1.63

1.60

1.68

1.62

1.56

1.59

1.62

1.67

1.64

1.58

1.53

1.64

1.63

1.67

1.60

1.54

1.63

1.60

1.68

1.63

1.56

1.58

1.62

1.67

1.65

1.58

1.53

1.63

1.63

1.67

1.61

1.54

1.62

1.60

1.68

1.63

1.56

1.58

1.61

1.67

1.65

1.58

1.53

1.64

1.63

1.68

1.61

1.54

1.62

1.60

1.68

1.63

1.56

1.58

1.61

1.66

1.65

1.58

1.52

1.63

1.62

1.67

1.60

1.54

1.62

1.59

1.67

1.62

1.56

1.58

1.61

1.65

1.64

1.58

1.52

1.63

1.62

1.67

1.61

1.54

1.62

1.59

1.68

1.63

1.56

1.58

1.61

1.67

1.65

1.59

1.53

1.63

1.62

1.67

1.61

1.54

1.62

1.59

1.67

1.63

1.56

1.58

1.61

1.66

1.64

1.58

1.53

1.63

1.62

1.67

1.61

1.54

1.62

1.59

1.68

1.63

1.56

1.58

1.62

1.67

1.65

1.59

1.53

1.63

1.62

1.68

1.61

1.55

1.62

1.60

1.68

1.63

1.57

1.58

1.62

1.67

1.66

1.59

1.54

1.64

1.63

1.68

1.61

1.55

1.63

1.60

1.68

1.63

1.57

1.58

1.61

1.66

1.65

1.59

1.53

1.63

1.62

1.67

1.60

1.54

1.62

1.59

1.67

1.62

1.56

1.57

1.60

1.66

1.64

1.58

1.52

1.62

1.62

1.67

1.60

1.54

1.62

1.60

1.68

1.63

1.56

1.58

1.61

1.66

1.65

1.59

1.53

1.63

1.63

1.68

1.62

1.55

1.62

1.60

1.68

1.63

1.57

1.58

1.62

1.66

1.65

1.59

1.53

1.64

1.62

1.68

1.61

1.55

1.62

1.60

1.68

1.63

1.57

1.58

1.61

1.66

1.65

1.59

1.54

1.64

1.63

1.68

1.62

1.55

1.63

1.60

1.68

1.64

1.57

1.58

1.62

1.66

1.66

1.59

1.53

1.64

1.63

1.68

1.61

1.55

1.62

1.61

1.68

1.64

1.57

1.58

1.62

1.67

1.66

1.59

1.54

1.64

1.63

1.69

1.62

1.55

1.63

1.61

1.68

1.64

1.57

1.58

1.62

1.67

1.66

1.60

1.54

1.64

1.63

1.68

1.62

1.55

1.62

1.60

1.68

1.64

1.57

1.58

1.62

1.66

1.66

1.59

1.53

1.63

1.62

1.68

1.61

1.55

1.62

1.61

1.68

1.64

1.57

1.58

1.62

1.66

1.65

1.59

1.53

1.63

1.62

1.67

1.61

1.54

1.62

1.59

1.67

1.63

1.56

1.57

1.62

1.66

1.65

1.58

1.53

1.63

1.61

1.67

1.61

1.55

1.62

1.60

1.68

1.63

1.57

1.58

1.63

1.66

1.66

1.60

1.54

1.64

1.63

1.68

1.62

1.55

1.62

1.61

1.69

1.64

1.58

1.59

1.63

1.68

1.67

1.61

1.55

1.65

1.63

1.69

1.63

1.56

1.63

1.61

1.69

1.64

1.58

1.58

1.63

1.66

1.66

1.60

1.54

1.64

1.63

1.68

1.62

1.55

1.62

1.61

1.69

1.65

1.58

1.58

1.63

1.66

1.66

1.59

1.53

1.64

1.62

1.68

1.61

1.55

1.61

1.60

1.68

1.63

1.56

1.57

1.61

1.65

1.65

1.58

1.52

1.62

1.60

1.66

1.60

1.53

1.61

1.60

1.67

1.63

1.57

1.57

1.62

1.66

1.66

1.59

1.54

1.63

1.62

1.68

1.61

1.55

1.62

1.61

1.69

1.64

1.58

1.58

1.63

1.66

1.67

1.60

1.54

1.64

1.62

1.68

1.62

1.55

1.61

1.60

1.68

1.64

1.57

1.57

1.62

1.66

1.65

1.59

1.53

1.63

1.61

1.68

1.61

1.54

1.61

1.60

1.68

1.63

1.57

1.57

1.62

1.65

1.65

1.58

1.53

1.63

1.60

1.67

1.60

1.54

1.60

1.59

1.67

1.63

1.57

1.56

1.61

1.65

1.65

1.58

1.52

1.61

1.59

1.65

1.59

1.53

1.59

1.57

1.64

1.60

1.54

1.55

1.60

1.63

1.63

1.57

1.51

1.61

1.60

1.67

1.61

1.55

1.62

1.61

1.68

1.63

1.57

1.56

1.59

1.64

1.65

1.59

1.54

1.63

1.61

1.65

1.59

1.54

1.61

1.60

1.68

1.63

1.57

1.59

1.62

1.69

1.80

1.84

1.90

1.89

2.31

2.86

2.94

2.99

2.97

3.06

3.35

3.40

3.38

3.48

3.54

3.51

3.50

3.53

3.64

3.60

3.53

3.82

4.07

3.97

4.15

4.41

4.43

4.35

4.23

4.22

4.28

4.19

4.08

3.93

3.82

3.88

3.80

3.96

3.88

3.89

3.94

3.89

3.82

3.69

3.56

3.50

3.49

3.43

3.34

3.23

3.13

3.18

3.10

3.08

2.96

2.86

2.88

2.83

2.83

2.75

2.65

2.62

2.64

2.60

2.53

2.45

2.36

2.44

2.37

2.37

2.28

2.21

2.26

2.26

2.27

2.19

2.11

2.12

2.18

2.17

2.13

2.06

2.00

2.11

2.06

2.09

2.04

1.97

2.04

2.04

2.06

2.00

1.96

1.96

2.02

2.02

1.99

1.95

1.90

2.01

1.97

2.00

1.94

1.88

1.95

1.94

1.97

1.92

1.86

1.86

1.93

1.93

1.92

1.85

1.80

1.92

1.88

1.92

1.85

1.79

1.86

1.86

1.90

1.85

1.79

1.79

1.86

1.87

1.86

1.80

1.75

1.87

1.84

1.88

1.81

1.75

1.83

1.83

1.88

1.82

1.76

1.76

1.82

1.82

1.81

1.75

1.69

1.79

1.77

1.82

1.75

1.70

1.76

1.77

1.81

1.76

1.71

1.72

1.80

1.80

1.79

1.73

1.69

1.80

1.76

1.81

1.75

1.69

1.76

1.76

1.81

1.76

1.71

1.70

1.76

1.77

1.76

1.71

1.66

1.76

1.73

1.79

1.72

1.66

1.73

1.72

1.78

1.73

1.67

1.67

1.75

1.75

1.74

1.69

1.63

1.74

1.71

1.77

1.71

1.65

1.71

1.71

1.76

1.72

1.66

1.67

1.74

1.74

1.74

1.68

1.62

1.73

1.70

1.77

1.70

1.64

1.71

1.71

1.77

1.72

1.66

1.65

1.72

1.72

1.72

1.65

1.60

1.70

1.67

1.73

1.67

1.61

1.66

1.66

1.73

1.69

1.63

1.61

1.69

1.70

1.71

1.64

1.58

1.68

1.64

1.72

1.65

1.59

1.64

1.64

1.70

1.66

1.60

1.59

1.66

1.68

1.69

1.62

1.56

1.66

1.62

1.70

1.63

1.57

1.64

1.65

1.78

1.86

1.87

1.86

1.84

2.01

2.21

2.33

2.35

2.39

2.65

2.97

2.92

2.91

3.40

3.56

3.88

3.92

4.28

4.47

4.48

4.38

4.28

4.11

4.01

3.96

4.20

4.29

4.23

4.15

4.11

4.20

4.10

3.96

3.82

3.77

3.65

3.54

3.45

3.43

3.31

3.37

3.27

3.26

3.13

3.03

3.04

3.02

3.00

2.90

2.81

2.76

2.77

2.75

2.71

2.62

2.54

2.63

2.56

2.57

2.50

2.43

2.47

2.44

2.46

2.39

2.33

2.30

2.35

2.32

2.29

2.21

2.16

2.27

2.21

2.24

2.17

2.11

2.16

2.16

2.19

2.13

2.07

2.08

2.16

2.15

2.13

2.05

1.99

2.09

2.05

2.08

2.01

1.95

1.99

2.01

2.04

1.99

1.92

1.89

1.96

1.96

1.96

1.89

1.83

1.93

1.90

1.95

1.88

1.81

1.86

1.86

1.91

1.87

1.79

1.77

1.86

1.85

1.85

1.78

1.72

1.82

1.77

1.84

1.77

1.71

1.74

1.75

1.79

1.74

1.69

1.67

1.75

1.75

1.76

1.70

1.64

1.74

1.71

1.78

1.72

1.65

1.69

1.69

1.75

1.71

1.65

1.63

1.71

1.71

1.71

1.65

1.58

1.70

1.66

1.73

1.67

1.61

1.66

1.67

1.73

1.69

1.63

1.61

1.70

1.71

1.73

1.66

1.60

1.70

1.67

1.74

1.67

1.60

1.64

1.65

1.71

1.68

1.62

1.60

1.69

1.70

1.73

1.67

1.60

1.70

1.67

1.73

1.67

1.61

1.65

1.67

1.72

1.68

1.62

1.59

1.68

1.68

1.70

1.64

1.58

1.68

1.63

1.72

1.65

1.59

1.64

1.65

1.73

1.70

1.64

1.61

1.71

1.70

1.72

1.65

1.60

1.70

1.65

1.73

1.67

1.60

1.65

1.67

1.73

1.69

1.63

1.60

1.68

1.70

1.72

1.65

1.59

1.69

1.65

1.73

1.67

1.60

1.64

1.64

1.71

1.69

1.62

1.58

1.66

1.67

1.69

1.63

1.57

1.66

1.63

1.71

1.66

1.59

1.63

1.64

1.70

1.67

1.61

1.57

1.66

1.67

1.70

1.63

1.57

1.66

1.62

1.71

1.65

1.58

1.62

1.64

1.70

1.67

1.61

1.58

1.65

1.66

1.68

1.62

1.56

1.64

1.60

1.68

1.62

1.56

1.60

1.61

1.68

1.65

1.58

1.55

1.63

1.64

1.67

1.61

1.54

1.63

1.59

1.68

1.62

1.55

1.57

1.56

1.66

1.70

1.81

1.84

1.88

2.17

2.57

2.67

2.70

2.67

2.64

2.72

2.88

2.82

2.82

2.74

2.69

2.86

3.07

3.04

3.07

3.00

2.92

2.82

2.71

2.73

2.70

2.68

2.58

2.49

2.48

2.49

2.66

2.61

2.58

2.54

2.53

2.54

2.49

2.44

2.45

2.56

2.50

2.51

2.42

2.35

2.37

2.37

2.39

2.35

2.27

2.24

2.33

2.30

2.28

2.20

2.14

2.23

2.18

2.23

2.17

2.12

2.16

2.17

2.18

2.13

2.07

2.04

2.12

2.10

2.08

2.01

1.94

2.03

1.98

2.02

1.96

1.92

1.97

2.00

2.03

1.98

1.91

1.88

1.99

1.98

1.96

1.92

1.87

1.96

1.91

1.95

1.89

1.82

1.86

1.89

1.91

1.87

1.80

1.78

1.88

1.87

1.87

1.80

1.74

1.84

1.80

1.87

1.81

1.74

1.78

1.79

1.84

1.81

1.74

1.71

1.80

1.80

1.83

1.76

1.70

1.79

1.75

1.82

1.76

1.70

1.73

1.75

1.79

1.76

1.70

1.65

1.74

1.73

1.75

1.69

1.62

1.72

1.68

1.75

1.70

1.63

1.67

1.68

1.74

1.71

1.65

1.60

1.69

1.68

1.71

1.64

1.58

1.68

1.65

1.72

1.66

1.60

1.63

1.63

1.69

1.66

1.59

1.56

1.66

1.67

1.70

1.64

1.57

1.67

1.64

1.71

1.65

1.59

1.63

1.66

1.71

1.68

1.62

1.57

1.67

1.67

1.70

1.64

1.57

1.66

1.62

1.71

1.65

1.58

1.63

1.65

1.71

1.69

1.62

1.57

1.66

1.66

1.70

1.64

1.57

1.66

1.62

1.73

1.67

1.61

1.61

1.62

1.68

1.64

1.59

1.54

1.64

1.64

1.68

1.61

1.55

1.64

1.61

1.69

1.64

1.57

1.60

1.62

1.68

1.66

1.60

1.54

1.64

1.64

1.69

1.62

1.56

1.65

1.61

1.69

1.64

1.58

1.60

1.62

1.68

1.66

1.60

1.55

1.64

1.64

1.67

1.61

1.54

1.63

1.60

1.69

1.64

1.57

1.59

1.62

1.68

1.66

1.60

1.54

1.64

1.64

1.69

1.62

1.55

1.64

1.61

1.70

1.65

1.58

1.60

1.62

1.69

1.67

1.60

1.55

1.65

1.64

1.69

1.62

1.55

1.64

1.60

1.69

1.64

1.57

1.60

1.62

1.68

1.66

1.60

1.54

1.63

1.63

1.68

1.61

1.55

1.64

1.62

1.82

1.93

1.89

1.90

1.97

2.32

2.62

2.84

2.82

2.87

3.29

3.77

3.80

3.98

4.34

4.31

4.25

4.23

4.29

4.27

4.21

4.25

4.26

4.25

4.31

4.35

4.27

4.16

4.00

3.87

3.89

3.76

3.69

3.56

3.58

3.63

3.72

3.64

3.51

3.41

3.31

3.36

3.28

3.23

3.11

3.01

3.06

2.98

2.99

2.90

2.83

2.83

2.84

2.83

2.76

2.67

2.60

2.68

2.62

2.61

2.53

2.46

2.55

2.49

2.51

2.42

2.35

2.35

2.38

2.38

2.32

2.24

2.19

2.29

2.26

2.24

2.17

2.11

2.21

2.17

2.21

2.13

2.07

2.11

2.14

2.15

2.10

2.03

1.98

2.08

2.07

2.09

2.02

1.98

2.07

2.03

2.07

2.01

1.95

1.98

2.00

2.02

1.98

1.91

1.86

1.98

1.96

1.97

1.90

1.84

1.93

1.90

1.95

1.88

1.82

1.84

1.87

1.92

1.92

1.86

1.81

1.93

1.91

1.93

1.86

1.79

1.87

1.83

1.90

1.84

1.77

1.78

1.81

1.85

1.84

1.76

1.71

1.81

1.80

1.84

1.77

1.70

1.79

1.76

1.82

1.77

1.71

1.72

1.74

1.78

1.76

1.69

1.63

1.74

1.73

1.77

1.70

1.64

1.72

1.69

1.77

1.72

1.65

1.66

1.69

1.73

1.71

1.64

1.59

1.69

1.69

1.73

1.66

1.59

1.67

1.65

1.72

1.67

1.61

1.62

1.65

1.69

1.67

1.61

1.55

1.65

1.65

1.70

1.64

1.57

1.66

1.63

1.71

1.66

1.59

1.61

1.63

1.68

1.67

1.61

1.55

1.65

1.65

1.70

1.63

1.56

1.64

1.61

1.69

1.65

1.58

1.59

1.63

1.68

1.67

1.60

1.55

1.64

1.64

1.68

1.62

1.55

1.64

1.61

1.69

1.64

1.58

1.59

1.61

1.66

1.65

1.58

1.52

1.62

1.62

1.67

1.61

1.54

1.61

1.58

1.67

1.63

1.56

1.58

1.61

1.66

1.65

1.59

1.53

1.64

1.64

1.68

1.62

1.55

1.62

1.60

1.69

1.65

1.59

1.60

1.64

1.69

1.69

1.62

1.56

1.66

1.66

1.71

1.66

1.68

1.70

1.69

1.94

2.04

1.99

2.19

2.54

2.94

3.26

3.33

3.33

3.82

3.92

4.13

4.08

4.19

4.45

4.35

4.28

4.19

4.08

4.00

4.04

4.00

3.92

3.81

3.67

3.67

3.57

3.50

3.37

3.26

3.25

3.25

3.20

3.15

3.08

3.10

3.19

3.16

3.08

3.00

2.92

3.00

2.93

2.90

2.80

2.70

2.75

2.69

2.70

2.62

2.55

2.56

2.59

2.57

2.50

2.43

2.37

2.45

2.40

2.39

2.31

2.24

2.33

2.30

2.31

2.24

2.17

2.17

2.20

2.20

2.15

2.07

2.01

2.12

2.09

2.10

2.03

1.97

2.05

2.02

2.05

2.00

1.96

1.98

2.02

2.02

1.99

1.92

1.87

1.97

1.95

1.97

1.90

1.84

1.92

1.89

1.94

1.88

1.82

1.83

1.88

1.91

1.89

1.81

1.75

1.86

1.84

1.88

1.81

1.74

1.79

1.75

1.80

1.74

1.68

1.69

1.74

1.76

1.74

1.68

1.62

1.73

1.71

1.75

1.68

1.62

1.69

1.67

1.74

1.69

1.63

1.64

1.67

1.71

1.70

1.63

1.57

1.68

1.68

1.72

1.65

1.59

1.66

1.64

1.70

1.65

1.59

1.60

1.64

1.68

1.67

1.61

1.56

1.68

1.66

1.71

1.64

1.57

1.64

1.63

1.70

1.66

1.59

1.60

1.65

1.69

1.69

1.63

1.57

1.69

1.66

1.72

1.66

1.60

1.67

1.65

1.73

1.68

1.61

1.62

1.66

1.70

1.69

1.63

1.57

1.69

1.67

1.73

1.66

1.60

1.67

1.65

1.73

1.68

1.61

1.62

1.66

1.70

1.70

1.64

1.57

1.65

1.63

1.68

1.61

1.54

1.61

1.58

1.67

1.63

1.57

1.58

1.63

1.67

1.66

1.60

1.54

1.64

1.63

1.70

1.63

1.57

1.63

1.62

1.69

1.65

1.58

1.59

1.63

1.67

1.67

1.61

1.55

1.66

1.64

1.71

1.65

1.59

1.66

1.64

1.72

1.68

1.62

1.63

1.68

1.73

1.75

1.69

1.63

1.74

1.72

1.77

1.71

1.64

1.71

1.68

1.74

1.70

1.64

1.65

1.68

1.71

1.70

1.64

1.57

1.67

1.65

1.72

1.66

1.60

1.67

1.64

1.73

1.68

1.61

1.61

1.64

1.68

1.67

1.62

1.57

1.65

1.71

1.92

1.99

1.95

2.01

1.97

2.00

2.00

2.16

2.36

2.49

2.54

2.50

2.39

2.33

2.48

2.45

2.40

2.33

2.35

2.42

2.42

2.72

2.70

2.72

2.84

3.03

3.44

3.44

3.53

3.47

3.63

3.56

3.47

3.40

3.34

3.38

3.45

3.42

3.32

3.24

3.22

3.23

3.17

3.09

2.99

2.90

2.97

2.89

2.88

2.79

2.70

2.73

2.69

2.66

2.58

2.49

2.47

2.53

2.51

2.46

2.38

2.31

2.42

2.37

2.38

2.30

2.23

2.30

2.28

2.29

2.21

2.15

2.14

2.17

2.16

2.12

2.05

2.00

2.11

2.07

2.08

2.01

1.96

2.01

1.98

2.02

1.96

1.91

1.92

1.96

1.97

1.94

1.88

1.82

1.92

1.90

1.94

1.86

1.81

1.88

1.87

1.92

1.87

1.81

1.81

1.86

1.88

1.86

1.79

1.73

1.83

1.79

1.85

1.78

1.71

1.76

1.74

1.82

1.77

1.71

1.71

1.77

1.78

1.78

1.72

1.66

1.76

1.73

1.78

1.72

1.65

1.71

1.70

1.78

1.74

1.67

1.68

1.73

1.74

1.74

1.67

1.61

1.70

1.68

1.73

1.66

1.60

1.68

1.66

1.74

1.69

1.62

1.62

1.66

1.70

1.72

1.65

1.60

1.71

1.69

1.74

1.68

1.62

1.68

1.67

1.74

1.70

1.64

1.64

1.70

1.72

1.72

1.65

1.59

1.67

1.65

1.72

1.65

1.60

1.66

1.66

1.73

1.68

1.62

1.61

1.67

1.70

1.70

1.63

1.58

1.68

1.65

1.72

1.65

1.58

1.63

1.64

1.72

1.69

1.62

1.62

1.67

1.69

1.69

1.62

1.56

1.67

1.65

1.72

1.66

1.59

1.66

1.65

1.72

1.68

1.61

1.60

1.66

1.69

1.71

1.65

1.59

1.70

1.67

1.74

1.67

1.60

1.66

1.65

1.73

1.69

1.62

1.61

1.65

1.68

1.69

1.62

1.56

1.67

1.65

1.73

1.67

1.61

1.67

1.66

1.74

1.71

1.64

1.64

1.70

1.72

1.74

1.67

1.61

1.71

1.68

1.76

1.70

1.64

1.69

1.68

1.76

1.72

1.65

1.65

1.71

1.73

1.74

1.67

1.61

1.72

1.68

1.75

1.69

1.62

1.68

1.67

1.74

1.70

1.63

1.63

1.69

1.71

1.73

1.66

1.60

1.70

1.67

1.74

1.67

1.62

1.63

1.63

1.82

1.81

1.85

1.83

2.01

2.41

2.51

2.49

2.89

2.91

2.93

2.95

3.08

3.31

3.59

3.63

3.58

3.46

3.37

3.34

3.29

3.22

3.14

3.30

3.26

3.40

3.41

3.35

3.27

3.15

3.16

3.10

3.21

3.24

3.20

3.09

3.12

3.19

3.19

3.26

3.21

3.29

3.22

3.17

3.06

2.98

3.00

2.96

2.95

2.85

2.75

2.72

2.75

2.72

2.67

2.59

2.53

2.63

2.56

2.56

2.46

2.39

2.42

2.39

2.39

2.32

2.25

2.25

2.31

2.28

2.24

2.17

2.11

2.21

2.17

2.21

2.14

2.08

2.14

2.13

2.17

2.12

2.09

2.09

2.15

2.14

2.11

2.04

1.99

2.09

2.03

2.06

1.99

1.93

1.98

1.98

2.02

1.96

1.91

1.91

1.96

1.97

1.95

1.88

1.83

1.94

1.89

1.94

1.88

1.81

1.87

1.87

1.91

1.86

1.78

1.77

1.82

1.83

1.84

1.77

1.71

1.80

1.76

1.82

1.76

1.69

1.75

1.75

1.81

1.77

1.70

1.69

1.75

1.76

1.77

1.71

1.64

1.73

1.69

1.74

1.69

1.62

1.66

1.65

1.71

1.68

1.60

1.59

1.67

1.69

1.71

1.64

1.59

1.68

1.64

1.71

1.64

1.58

1.64

1.63

1.71

1.66

1.60

1.58

1.63

1.65

1.66

1.60

1.54

1.64

1.60

1.69

1.62

1.56

1.61

1.62

1.69

1.67

1.61

1.62

1.67

1.70

1.70

1.63

1.57

1.66

1.62

1.70

1.63

1.57

1.60

1.59

1.66

1.63

1.56

1.55

1.61

1.64

1.66

1.59

1.54

1.62

1.59

1.68

1.62

1.55

1.60

1.60

1.68

1.65

1.58

1.56

1.62

1.65

1.69

1.63

1.57

1.68

1.63

1.72

1.66

1.59

1.63

1.62

1.69

1.66

1.59

1.57

1.63

1.65

1.67

1.61

1.55

1.64

1.60

1.69

1.63

1.57

1.61

1.60

1.68

1.65

1.59

1.57

1.63

1.65

1.66

1.60

1.54

1.64

1.60

1.69

1.63

1.57

1.61

1.61

1.69

1.66

1.59

1.57

1.63

1.66

1.68

1.62

1.56

1.66

1.62

1.71

1.65

1.58

1.62

1.61

1.70

1.66

1.60

1.59

1.65

1.67

1.69

1.63

1.57

1.66

1.62

1.71

1.66

1.60

1.65

1.66

1.73

1.69

1.62

1.60

1.67

1.69

1.71

1.68

1.73

1.74

1.79

1.99

2.17

2.17

2.19

2.32

2.97

3.05

3.14

3.11

3.17

3.19

3.18

3.10

3.07

3.14

3.16

3.11

3.04

3.03

3.05

3.17

3.29

3.43

3.42

3.48

3.53

3.49

3.49

3.38

3.28

3.30

3.35

3.34

3.26

3.18

3.38

3.46

3.73

3.67

3.77

3.76

3.79

3.70

3.61

3.47

3.35

3.39

3.30

3.26

3.15

3.04

3.06

3.04

3.02

2.93

2.83

2.80

2.83

2.79

2.74

2.68

2.60

2.68

2.61

2.61

2.52

2.44

2.47

2.45

2.46

2.39

2.32

2.29

2.36

2.33

2.31

2.22

2.17

2.26

2.20

2.24

2.17

2.12

2.17

2.17

2.19

2.14

2.08

2.06

2.15

2.12

2.11

2.03

1.97

2.07

2.02

2.06

1.99

1.93

1.97

1.97

2.01

1.96

1.89

1.87

1.94

1.94

1.94

1.87

1.80

1.90

1.85

1.92

1.85

1.78

1.82

1.82

1.89

1.85

1.78

1.74

1.81

1.82

1.85

1.78

1.73

1.81

1.77

1.85

1.78

1.71

1.75

1.76

1.81

1.77

1.71

1.68

1.74

1.74

1.75

1.69

1.63

1.72

1.68

1.78

1.72

1.66

1.71

1.72

1.77

1.73

1.67

1.64

1.72

1.74

1.75

1.69

1.62

1.72

1.67

1.75

1.69

1.62

1.66

1.66

1.74

1.72

1.67

1.64

1.72

1.73

1.75

1.69

1.62

1.71

1.67

1.76

1.71

1.65

1.70

1.70

1.76

1.73

1.66

1.63

1.70

1.72

1.74

1.68

1.61

1.70

1.66

1.74

1.69

1.62

1.66

1.67

1.75

1.74

1.67

1.64

1.73

1.74

1.75

1.69

1.62

1.72

1.67

1.75

1.69

1.62

1.66

1.67

1.74

1.71

1.64

1.61

1.69

1.70

1.72

1.65

1.59

1.68

1.64

1.73

1.66

1.60

1.63

1.64

1.71

1.68

1.61

1.58

1.65

1.66

1.70

1.63

1.56

1.65

1.61

1.71

1.65

1.58

1.61

1.62

1.69

1.66

1.60

1.56

1.64

1.65

1.68

1.61

1.55

1.64

1.60

1.69

1.63

1.57

1.61

1.62

1.69

1.66

1.59

1.56

1.63

1.64

1.67

1.61

1.55

1.65

1.61

1.70

1.64

1.57

1.61

1.62

1.69

1.66

1.59

1.56

1.63

1.65

1.68

1.61

1.55

1.64

1.60

1.69

1.63

1.57

1.60

1.61

1.68

1.66

1.59

1.55

