1.521.521.531.551.571.571.571.571.571.571.571.571.571.621.611.571.521.561.561.601.571.521.541.541.601.571.521.501.541.591.571.541.491.551.551.581.551.501.521.531.591.561.511.481.521.571.561.521.471.521.531.561.531.491.511.511.561.541.491.471.511.561.551.511.471.521.521.551.521.481.511.511.571.541.501.471.511.561.551.511.461.521.521.551.521.471.501.511.571.541.501.471.521.561.551.521.461.521.521.551.521.481.511.521.571.541.501.471.511.561.551.521.471.521.521.561.531.481.511.521.581.541.501.471.521.561.551.521.471.521.521.561.531.481.511.521.571.541.501.471.511.571.551.521.471.521.521.561.531.491.511.521.571.541.501.471.511.561.551.521.461.521.521.551.521.481.511.511.571.541.491.471.511.561.541.511.461.521.521.561.531.491.521.521.581.551.511.481.521.571.561.521.481.521.531.571.541.491.521.521.581.551.511.481.521.571.561.521.481.521.531.561.531.491.521.521.581.551.511.481.521.571.561.521.471.521.521.561.531.481.511.521.581.551.501.471.511.561.551.521.461.521.521.551.531.481.511.511.571.541.501.471.511.561.551.511.461.511.521.551.521.471.501.511.571.541.491.461.511.561.551.511.461.511.511.551.521.471.501.501.561.531.491.461.501.551.541.511.461.511.511.551.521.471.501.511.561.541.491.461.501.551.541.511.451.511.511.551.521.471.501.511.561.531.491.461.501.551.541.511.461.511.521.551.521.471.501.511.561.531.491.461.501.551.541.511.461.511.521.551.521.471.501.511.571.541.491.461.501.561.551.521.471.521.521.561.531.491.511.521.571.551.501.471.511.561.551.511.461.511.521.551.521.471.501.511.571.541.491.461.501.551.541.511.461.521.511.541.521.491.511.561.681.641.591.561.601.651.641.601.551.591.621.681.651.621.641.641.701.661.611.581.611.671.651.611.551.601.601.641.611.551.581.581.651.611.561.531.571.621.601.561.511.561.561.601.571.521.541.551.611.581.531.501.541.591.581.531.481.531.541.571.541.501.521.531.591.561.511.481.521.571.561.521.471.521.531.561.531.491.511.521.581.551.501.471.511.561.551.521.461.511.521.551.531.491.511.521.571.541.501.471.511.561.551.511.461.521.521.551.521.481.511.521.571.541.501.471.511.561.551.521.471.521.521.551.521.481.511.511.571.541.501.471.511.561.551.521.461.521.521.551.531.481.511.521.571.541.501.471.521.561.551.521.471.521.521.561.531.491.511.521.571.541.501.471.521.561.551.521.471.521.521.551.531.481.511.521.571.541.501.471.511.561.551.521.471.521.521.551.531.481.511.521.571.541.501.471.521.571.551.521.471.521.521.561.531.491.521.521.571.541.501.471.521.561.551.521.471.521.521.551.531.491.521.521.581.551.501.481.521.571.551.521.471.521.521.551.531.481.511.521.571.541.501.471.521.561.551.521.471.521.521.551.531.521.551.601.691.661.611.571.621.661.651.611.591.641.651.711.681.641.661.661.711.681.621.591.631.681.661.621.571.621.621.651.621.571.591.601.651.621.571.541.581.631.611.581.521.571.571.601.581.531.561.561.611.581.541.511.551.591.581.551.501.551.551.581.551.511.531.541.601.571.521.501.541.581.571.531.491.541.541.571.551.501.521.531.591.551.511.491.531.571.561.521.481.531.531.571.541.491.521.521.581.551.501.471.521.561.551.521.461.521.521.551.531.481.511.511.571.541.501.461.511.561.551.511.461.511.521.551.521.481.501.511.571.531.491.461.501.551.541.501.451.511.511.541.521.471.491.501.561.531.481.461.501.551.541.511.451.501.511.541.521.471.491.501.561.531.491.451.501.551.541.501.451.501.511.541.521.471.491.501.561.531.481.451.501.541.531.501.451.501.511.541.521.471.491.501.551.521.481.451.501.551.541.511.451.511.511.541.521.471.491.501.551.521.481.451.491.531.531.491.441.491.491.531.501.451.481.491.551.521.471.441.481.531.521.491.441.491.491.531.501.451.481.491.551.521.481.441.491.541.531.501.441.491.501.531.511.461.481.491.551.521.481.441.491.541.531.501.451.501.501.541.521.471.491.501.561.531.481.451.501.551.531.501.451.501.511.541.521.471.491.501.561.531.481.451.501.551.541.501.451.501.511.541.521.471.501.501.561.531.491.451.501.541.531.501.451.501.511.541.521.471.491.491.551.521.481.441.491.541.531.501.451.501.501.531.511.461.491.501.561.531.491.461.501.551.541.511.461.511.521.551.521.481.501.511.561.531.491.461.501.561.541.511.451.511.521.551.521.471.491.501.561.531.491.451.501.551.541.511.451.511.511.541.521.471.501.521.671.641.601.561.611.661.651.611.551.601.611.691.661.631.651.651.721.681.631.591.641.681.661.621.571.621.621.651.621.571.591.601.651.621.571.541.581.631.611.581.521.571.581.611.581.531.561.561.621.591.531.501.541.591.581.541.491.541.551.581.551.501.531.531.591.561.521.481.521.571.561.521.471.521.521.561.531.481.511.521.581.551.501.471.521.561.541.521.461.521.521.551.521.481.511.521.571.541.501.471.521.561.551.521.471.521.521.551.531.491.511.521.571.551.501.471.521.571.561.521.471.521.521.561.531.481.511.521.581.541.501.461.511.561.551.521.461.521.521.551.531.481.511.521.571.541.501.471.511.561.551.521.471.521.521.551.531.481.511.521.571.541.501.471.511.561.541.521.461.521.521.551.531.481.511.521.571.541.501.461.511.561.551.521.461.521.521.561.541.491.511.521.571.551.501.471.511.561.551.521.471.521.521.551.521.481.501.511.561.541.491.461.511.551.541.511.461.511.521.551.521.481.501.511.561.541.501.461.511.551.541.511.451.501.511.541.521.521.541.581.681.641.591.551.601.651.631.601.591.641.651.711.681.631.661.661.701.671.621.581.631.681.661.621.571.621.621.641.621.561.591.591.651.621.571.531.581.631.611.581.521.581.581.611.591.541.561.571.621.591.541.511.561.601.591.551.501.551.551.581.561.521.541.541.601.571.521.491.541.591.581.541.491.541.541.581.551.511.531.541.591.561.521.491.531.571.571.531.481.531.531.571.541.491.521.521.591.551.511.481.521.571.551.521.471.521.531.561.541.491.521.521.581.551.511.481.521.571.561.531.491.531.541.571.551.501.531.531.591.561.521.481.531.581.571.531.481.531.531.571.541.501.521.531.591.561.521.481.521.571.561.521.481.531.531.561.541.491.521.521.581.551.511.481.521.571.561.521.481.531.531.561.541.491.511.521.581.551.501.471.521.561.551.521.471.521.521.561.531.491.511.521.581.551.511.471.521.561.551.521.471.521.521.551.531.481.511.511.571.541.501.461.511.551.541.511.461.511.511.541.521.471.501.511.561.531.491.461.511.551.541.511.461.521.521.551.531.481.511.511.571.541.501.461.511.561.551.511.461.521.521.551.531.481.511.521.571.541.501.471.521.561.551.521.471.521.521.551.531.481.501.511.571.541.491.461.511.551.541.511.461.511.521.551.521.481.501.511.571.541.491.451.511.561.551.511.461.511.521.551.531.481.511.511.571.541.501.461.521.561.551.511.461.511.521.551.521.481.501.511.561.541.501.461.511.561.551.521.471.521.521.561.531.491.511.521.581.551.501.471.521.571.561.521.471.521.521.561.531.491.511.521.571.541.501.461.511.561.551.511.471.521.521.551.531.481.501.511.571.541.501.461.511.551.541.511.461.511.511.551.521.481.501.501.561.531.491.451.501.551.541.511.451.501.511.541.521.471.491.501.601.571.581.541.591.651.631.591.541.591.601.661.631.611.621.631.721.691.631.591.641.691.671.631.571.621.621.651.621.571.591.591.651.621.561.521.571.621.611.571.521.561.571.601.571.521.541.551.611.581.531.491.541.591.581.541.491.541.541.581.551.511.531.531.591.561.521.481.531.571.571.531.481.531.531.571.541.501.521.531.591.561.521.481.531.581.561.531.481.531.541.571.551.501.521.531.591.561.521.481.521.571.571.531.481.531.531.571.541.501.521.521.591.561.511.471.521.571.561.521.471.521.521.561.541.491.511.521.581.551.511.461.521.561.551.521.461.511.521.551.521.481.501.521.571.541.501.461.511.551.541.521.471.521.521.551.531.481.501.511.571.541.501.461.511.551.541.511.461.521.521.551.521.481.501.511.571.541.501.461.511.561.551.521.471.521.521.551.521.481.501.511.571.541.501.451.511.551.541.511.461.511.521.551.521.481.501.511.571.541.491.451.511.551.541.511.461.511.521.551.521.481.501.511.571.541.501.451.511.551.551.521.461.511.521.551.531.481.501.511.571.541.501.461.511.551.541.521.461.521.611.691.651.601.621.631.691.661.611.561.611.681.671.631.601.651.651.681.651.601.621.621.681.651.601.551.601.651.641.601.541.591.591.621.591.541.561.571.621.591.541.501.551.601.591.551.501.551.551.591.561.511.531.541.601.571.521.481.521.571.571.531.481.531.531.571.551.501.521.521.581.561.511.471.521.571.561.521.481.521.531.571.541.501.521.521.581.561.511.471.521.571.561.531.481.521.531.571.541.501.521.521.581.551.511.461.521.561.551.521.471.521.521.551.521.481.501.511.561.541.491.451.501.551.541.511.461.511.511.551.521.481.491.501.561.531.491.451.501.551.541.521.461.511.521.561.531.481.501.521.581.551.501.461.521.561.551.521.471.521.521.571.541.491.511.521.581.561.521.461.521.571.561.521.481.521.521.571.541.501.511.521.581.551.511.461.511.561.551.521.461.511.521.561.531.481.501.511.571.551.501.451.511.561.551.521.471.511.521.561.531.481.501.511.571.541.501.461.511.561.551.521.471.521.521.561.531.491.501.521.581.551.501.461.521.561.551.521.471.521.521.571.541.491.501.521.581.551.511.461.521.561.551.521.471.521.521.561.531.481.501.511.571.541.501.451.501.551.541.521.461.511.511.551.521.481.491.501.571.541.501.451.511.551.541.521.461.511.521.561.531.481.491.511.571.541.501.451.511.551.551.511.461.511.521.551.531.481.491.511.571.541.501.461.511.551.551.521.471.521.521.561.531.491.511.521.581.551.511.461.521.561.551.521.471.521.521.561.541.491.501.521.571.541.501.461.511.551.541.521.461.511.511.551.521.481.491.501.561.531.491.441.501.541.541.511.451.501.511.551.521.471.491.501.561.541.501.451.501.551.541.511.461.511.521.561.531.481.501.511.571.541.541.531.591.661.651.611.561.601.601.651.621.611.621.631.711.681.631.581.631.671.661.631.571.611.621.651.631.571.581.591.651.621.571.521.581.611.611.571.521.571.571.611.581.531.541.561.611.591.541.501.551.591.591.551.511.551.551.591.571.521.531.541.601.581.531.491.541.571.571.541.491.541.541.581.551.511.521.531.591.561.521.481.531.571.571.541.501.541.541.581.561.511.521.531.591.571.521.481.531.571.561.541.491.541.541.581.561.511.521.531.591.561.521.481.531.561.561.541.491.531.531.571.551.501.521.521.581.561.521.471.531.551.551.521.481.521.521.561.541.491.511.521.571.551.511.461.521.551.551.521.481.521.521.571.541.501.511.521.581.561.521.471.521.561.561.531.481.521.521.561.541.491.511.521.581.561.521.471.521.561.561.531.491.531.531.571.551.501.511.521.581.561.521.471.521.551.551.531.481.521.521.561.531.491.501.511.561.541.501.461.511.541.541.521.471.511.521.561.531.481.491.511.571.541.501.461.511.541.551.521.471.511.521.561.531.491.491.521.571.551.541.541.591.661.661.631.581.621.621.661.631.611.621.621.721.701.651.601.651.681.681.651.591.631.631.681.641.591.601.611.661.641.591.541.591.611.621.591.531.571.571.611.591.531.541.561.621.591.551.501.551.581.591.561.511.541.541.591.561.521.521.531.591.571.521.481.531.561.571.541.491.531.541.581.561.511.511.531.581.561.521.471.521.551.561.541.491.531.541.581.561.511.521.531.591.571.521.481.531.551.571.541.491.531.531.591.561.511.511.531.581.561.521.471.521.551.561.531.481.521.521.571.551.501.501.521.571.551.511.471.521.541.561.531.481.521.521.571.541.491.501.521.571.551.511.471.521.541.561.531.481.521.531.581.541.501.501.521.581.561.521.471.521.541.561.531.491.521.521.581.551.501.501.521.571.561.511.471.521.531.551.531.481.521.521.571.541.501.501.521.571.561.521.471.521.531.561.531.481.521.521.571.541.501.501.521.581.561.521.471.521.531.561.521.481.511.521.571.541.491.491.511.561.551.511.461.511.521.551.521.471.511.521.571.541.501.491.511.571.561.521.471.521.531.551.521.481.521.521.571.541.501.501.521.581.561.521.471.521.531.561.531.481.521.521.571.541.491.491.511.571.551.511.461.521.531.561.531.481.511.521.571.541.491.491.511.571.551.511.461.511.521.551.521.471.511.521.571.541.501.491.521.571.551.511.461.521.521.551.521.481.521.521.571.551.501.491.521.571.551.521.471.521.531.561.531.491.521.521.581.551.511.501.521.571.561.521.471.521.531.561.531.481.521.521.581.551.501.491.521.571.561.521.471.521.521.551.531.481.521.521.581.551.511.501.521.571.561.521.471.521.531.561.541.491.521.521.581.551.501.491.521.571.561.521.481.521.531.571.541.501.531.541.591.561.511.501.531.581.571.531.481.531.531.571.541.501.521.531.591.581.601.591.621.711.691.651.591.641.651.681.651.621.651.651.731.701.651.631.661.701.681.641.581.641.631.661.631.581.611.611.661.631.571.561.591.641.621.581.521.581.581.611.581.531.561.561.621.591.541.521.561.611.591.551.511.561.561.591.571.521.541.551.611.581.531.511.541.601.581.551.501.551.551.581.551.511.531.541.601.571.521.501.531.581.571.541.491.541.541.571.551.501.521.531.581.561.511.491.521.571.561.521.471.521.531.561.541.491.521.531.581.551.511.481.521.571.561.521.471.521.531.561.531.491.521.521.581.551.511.481.521.571.561.521.481.531.531.561.541.501.521.521.581.561.511.481.521.571.561.531.481.531.531.571.551.501.531.531.591.561.521.491.531.581.571.541.491.531.531.571.541.501.521.531.591.561.511.481.521.571.561.521.471.521.531.561.541.491.521.521.581.551.511.471.521.571.561.521.471.521.531.561.541.491.521.521.581.551.511.471.521.571.561.521.471.531.531.561.541.491.521.521.581.551.511.471.521.571.561.521.481.531.531.571.541.501.521.531.591.561.521.481.531.581.561.531.481.531.541.571.551.501.521.571.731.701.651.611.661.701.691.651.591.651.681.751.731.681.701.701.741.721.661.621.671.711.691.651.601.651.651.681.651.591.611.621.671.641.591.551.601.651.631.601.541.591.591.631.601.551.571.571.631.601.561.521.571.611.601.561.511.561.561.601.571.521.541.551.611.581.531.491.541.591.581.541.491.541.541.581.551.511.521.541.601.571.521.481.531.581.571.531.491.541.541.571.551.501.521.531.591.561.521.471.531.571.561.531.481.531.531.571.541.501.521.531.591.561.521.471.531.571.571.531.481.531.531.571.551.501.521.531.591.561.521.481.531.581.571.541.491.541.541.581.551.511.521.531.591.571.521.481.531.571.571.541.491.531.541.581.551.511.521.541.601.571.521.481.541.581.571.541.491.541.541.581.561.511.521.541.601.571.531.481.531.581.571.541.491.541.541.581.551.511.521.531.591.571.521.481.531.571.571.541.491.531.531.581.551.501.521.521.581.561.521.471.521.561.561.531.481.521.531.571.551.501.511.521.581.561.521.471.521.561.561.531.491.521.531.571.541.501.511.521.581.561.521.471.521.561.561.531.481.521.531.571.541.501.511.521.581.561.511.461.521.551.561.521.481.521.521.571.541.501.511.521.581.561.521.471.521.561.561.531.481.521.521.571.541.501.511.521.641.611.611.561.611.651.651.621.571.611.621.721.691.681.681.691.751.731.681.631.681.711.711.681.621.661.661.691.661.611.621.631.681.651.611.561.611.641.641.611.561.601.601.641.611.561.571.591.641.621.571.521.581.601.611.581.531.571.571.621.591.541.551.561.621.601.551.511.561.591.601.571.521.551.561.601.571.521.531.541.611.581.541.491.541.571.581.561.511.541.551.601.571.521.521.541.601.571.531.491.541.561.581.551.501.541.541.591.561.521.521.541.601.581.531.491.541.571.581.551.511.541.551.591.561.521.521.541.601.571.531.481.531.551.571.541.501.531.541.591.561.511.521.531.591.571.531.481.531.551.571.551.491.531.541.591.561.511.511.531.591.571.521.481.531.551.581.551.501.531.541.591.561.521.521.531.591.571.531.491.531.561.581.551.511.541.541.601.571.521.521.541.601.581.541.491.541.561.581.551.511.541.551.601.571.521.521.541.601.581.541.491.551.551.571.551.501.541.541.591.561.521.521.531.591.581.531.491.541.551.581.551.511.541.541.591.561.521.511.541.601.571.541.491.541.551.581.551.511.541.541.591.571.521.521.541.591.571.531.491.541.551.581.551.501.531.541.591.561.521.511.541.591.581.541.491.531.541.571.541.501.531.531.591.551.511.501.531.581.571.521.481.531.541.571.541.491.521.531.581.551.521.501.531.581.561.521.481.521.531.571.541.491.521.521.581.561.511.491.521.591.571.531.491.541.541.581.551.501.531.531.601.561.521.501.531.591.581.541.491.541.641.701.671.621.651.651.721.681.631.601.641.701.681.641.601.651.661.691.661.601.631.641.681.651.591.571.601.651.641.601.541.591.591.621.591.541.571.571.631.601.551.521.561.611.601.561.511.561.561.601.561.521.541.551.611.571.521.501.541.591.581.541.491.541.541.581.551.501.531.541.601.561.521.491.531.581.571.541.491.541.541.581.551.511.531.541.601.571.531.501.541.591.581.541.491.541.541.581.551.511.531.531.601.571.521.491.531.581.571.531.481.531.531.571.541.491.521.521.581.551.511.481.521.571.561.521.471.521.531.561.541.491.521.521.581.551.501.471.521.571.551.521.471.521.521.561.541.491.521.521.581.551.511.471.521.571.561.521.481.531.531.571.541.501.521.531.601.561.521.481.531.581.581.541.491.541.541.581.551.501.521.531.591.561.521.481.531.581.571.531.481.531.531.571.541.501.521.531.591.561.521.481.521.581.571.531.481.531.531.571.541.501.521.531.591.561.521.471.531.581.571.531.481.531.541.581.551.511.531.531.601.571.521.481.541.591.581.551.501.541.551.591.561.521.531.541.611.581.531.481.541.591.581.551.491.541.541.581.551.511.521.531.591.571.521.481.531.581.571.541.491.531.541.581.551.501.521.531.591.561.521.471.531.581.571.541.491.531.541.581.551.501.521.531.591.561.521.471.531.571.561.531.481.531.541.581.551.511.521.531.601.561.521.481.531.591.581.541.501.541.551.591.561.511.531.541.601.581.531.481.531.591.581.541.491.541.541.591.551.511.521.531.601.571.521.481.531.581.571.541.491.531.541.581.551.501.521.531.591.561.521.471.531.571.571.541.481.531.531.581.551.501.521.561.731.701.651.601.651.691.691.651.591.641.651.731.701.671.681.681.741.711.661.601.661.701.691.651.591.641.641.681.641.591.601.611.671.641.591.541.591.641.631.601.541.591.591.631.601.551.561.571.641.611.561.521.571.621.611.581.521.571.581.621.591.531.551.561.621.601.551.511.561.601.601.571.521.561.561.611.591.531.541.561.621.591.541.501.561.591.591.561.511.551.561.601.571.521.531.551.611.591.541.501.551.591.591.561.511.551.551.601.571.521.531.541.601.581.531.491.541.571.581.551.501.541.541.591.561.521.521.541.601.581.531.491.541.571.581.551.501.541.541.591.561.511.521.531.591.571.521.481.531.561.571.541.491.531.541.591.561.511.521.541.591.571.521.481.531.571.581.551.501.541.541.591.571.521.521.531.601.571.531.481.531.571.581.541.501.531.541.591.561.511.521.531.591.571.531.491.531.561.571.551.501.541.541.591.561.511.521.531.591.571.521.481.531.551.571.541.491.531.531.581.561.511.511.531.591.571.531.481.531.561.571.541.501.531.541.591.561.521.521.541.601.581.531.491.541.561.581.551.501.541.621.751.721.671.661.681.741.721.661.611.661.721.771.741.701.741.731.771.741.691.691.711.741.721.681.621.671.691.701.671.611.651.651.691.671.611.611.631.681.661.611.561.611.621.641.611.561.601.601.651.621.571.571.591.641.621.581.531.581.601.611.591.531.571.581.631.601.551.551.571.631.611.561.521.571.591.611.591.541.571.571.621.591.541.541.561.621.601.561.511.561.571.601.581.521.561.571.621.591.541.531.561.611.601.551.511.561.571.591.571.521.551.551.601.571.521.521.541.601.581.541.491.541.551.581.551.501.531.541.601.571.521.521.541.591.581.531.491.541.541.571.551.501.531.541.601.571.521.511.541.601.581.541.501.551.551.581.561.511.551.551.601.581.531.521.551.601.581.551.501.551.561.591.571.521.551.551.611.581.531.521.551.601.591.541.501.551.551.591.561.511.541.551.601.571.521.511.541.601.581.541.491.541.551.581.561.511.541.541.601.571.521.501.531.591.571.531.491.541.541.571.551.501.531.531.601.561.521.501.531.591.581.531.491.541.541.581.551.501.531.541.601.571.521.501.541.591.581.541.491.541.551.581.551.511.531.541.601.571.521.501.541.591.571.531.491.541.541.581.561.511.531.541.601.571.521.501.541.591.581.541.491.541.551.591.561.511.541.551.611.581.531.501.541.601.591.551.501.551.561.591.561.521.541.551.611.581.531.501.551.601.591.551.501.551.551.591.561.521.541.551.601.581.611.591.641.711.691.651.591.641.641.681.651.621.641.641.721.691.641.601.641.691.681.631.581.631.631.661.631.581.601.611.671.631.581.541.591.641.621.591.531.591.591.621.601.551.571.571.641.611.561.521.571.621.611.571.521.571.571.621.591.531.561.571.631.601.551.521.561.611.601.561.511.561.571.611.581.531.551.561.631.591.541.511.561.601.591.561.511.551.561.601.571.521.541.551.611.581.531.491.541.591.581.551.501.551.561.591.571.521.541.551.611.581.531.501.551.601.591.551.501.551.561.591.571.521.541.551.611.581.531.491.541.591.591.551.501.551.561.591.561.521.531.551.611.581.531.491.541.591.581.551.501.551.561.591.571.521.541.551.611.581.531.491.541.591.581.551.501.551.551.591.571.521.541.551.611.581.541.491.551.601.591.561.511.561.561.601.581.531.541.561.631.601.551.511.561.611.601.571.521.561.571.611.581.531.551.561.631.601.561.511.571.611.611.571.521.571.581.621.591.541.561.571.631.601.551.511.561.601.601.561.511.561.561.601.571.521.541.551.621.591.541.501.561.601.601.561.521.561.571.611.591.531.551.571.631.601.561.521.571.621.611.581.531.581.591.631.611.561.571.591.651.621.571.531.581.631.631.591.541.591.591.631.611.561.571.581.651.621.571.521.581.621.621.591.541.581.581.631.601.551.561.581.641.611.561.521.571.621.621.591.531.581.581.631.601.551.561.581.641.611.561.521.571.621.621.581.531.581.591.631.601.561.571.581.651.631.581.531.591.631.631.601.541.591.591.631.601.561.571.581.651.621.581.531.581.621.621.591.541.581.601.651.621.571.581.591.651.631.581.531.591.631.631.601.551.601.601.651.631.641.641.661.751.731.681.631.681.711.711.681.641.681.691.741.711.661.671.681.741.711.661.611.661.691.691.661.611.651.661.701.671.621.621.641.701.671.631.581.631.661.661.631.581.621.631.671.641.591.601.611.671.641.601.551.601.631.641.611.561.601.601.651.621.571.571.591.651.631.581.541.591.621.631.601.551.591.591.651.621.571.571.591.651.631.591.541.581.621.641.601.551.591.591.641.611.571.561.581.641.621.571.521.581.601.621.591.531.571.581.631.601.551.551.561.621.601.561.521.561.591.601.571.521.561.561.611.581.531.541.551.611.591.551.511.551.571.601.571.521.551.561.611.581.531.541.551.621.601.561.511.561.581.611.581.521.561.571.631.591.551.551.561.631.611.571.521.571.591.611.581.531.561.571.631.591.541.551.571.621.601.561.511.561.581.601.571.521.561.561.621.591.551.541.571.631.611.561.521.571.581.611.581.531.571.571.631.601.551.551.571.631.611.571.521.571.591.631.601.551.581.591.641.611.561.561.581.641.621.581.531.591.601.631.601.551.591.591.651.621.571.561.591.641.631.591.541.591.601.631.601.551.591.601.651.621.571.561.591.641.631.591.531.591.591.631.601.541.581.581.641.611.561.551.581.641.631.581.531.581.591.631.601.551.581.591.641.611.561.551.581.641.621.581.531.581.591.631.591.541.571.581.641.611.561.541.581.631.611.591.581.631.681.711.681.621.651.651.711.671.651.641.671.771.751.711.661.711.711.741.711.651.681.681.741.701.651.631.661.711.691.651.591.651.651.681.651.601.631.631.691.661.611.591.621.671.661.621.561.621.621.651.621.571.601.611.671.641.581.561.591.651.631.591.531.591.591.631.601.541.571.581.641.611.561.531.571.621.611.571.521.571.571.611.581.531.561.561.631.601.541.521.561.621.601.561.521.571.571.611.581.531.561.571.631.601.551.521.571.621.611.571.521.581.581.611.591.541.571.581.641.611.561.531.581.631.621.581.531.581.591.621.591.541.571.581.641.611.561.531.571.631.611.571.521.581.581.621.591.541.561.571.631.601.551.521.561.621.611.571.521.571.571.611.581.531.561.561.631.601.541.521.561.621.611.571.521.581.581.621.591.541.561.571.641.611.561.521.571.631.611.581.531.581.591.631.601.541.571.581.641.611.561.521.571.621.611.571.521.571.581.621.591.531.561.571.631.601.551.511.561.611.601.561.511.561.561.601.571.521.541.551.621.581.541.501.551.601.591.551.511.561.571.601.571.521.551.561.631.601.541.511.561.611.601.561.521.571.571.621.591.541.561.571.631.601.551.521.571.621.611.571.521.571.581.611.591.541.561.601.751.731.681.631.681.741.721.681.631.681.691.741.721.701.711.711.761.731.681.631.691.731.721.681.621.671.671.701.671.621.631.641.701.671.621.571.631.681.671.631.571.621.621.661.631.581.601.601.671.641.591.541.591.641.631.591.541.591.591.631.601.551.571.581.641.611.561.521.581.631.621.581.531.581.581.631.601.541.561.571.641.611.561.521.571.621.611.581.521.571.571.621.591.541.551.561.631.601.551.511.561.611.611.571.521.561.571.621.591.541.551.561.631.601.551.511.561.611.611.571.521.571.571.621.591.541.551.571.631.601.561.511.561.621.611.571.521.571.571.621.591.541.551.571.631.611.561.511.561.611.611.571.521.571.571.621.591.541.551.571.631.611.561.521.571.611.611.581.531.581.581.631.601.551.561.571.641.611.561.521.571.621.611.581.531.571.581.621.601.541.551.571.631.601.561.511.561.611.611.581.521.571.571.621.591.541.551.561.631.601.551.511.571.601.601.571.521.571.571.621.591.541.551.561.631.601.561.521.571.621.621.591.541.581.591.631.611.561.561.581.651.631.581.531.591.631.631.601.551.591.601.641.611.561.571.591.651.631.581.531.581.621.621.591.541.581.581.631.601.551.561.571.641.611.561.521.571.611.621.581.531.571.581.631.601.551.551.571.631.611.561.521.571.601.611.581.531.571.581.631.601.551.551.571.641.621.571.521.571.611.611.581.531.571.581.631.611.551.561.571.641.611.571.521.571.601.611.581.521.561.571.611.591.541.541.561.621.601.551.511.551.581.601.571.521.561.561.611.591.531.541.551.621.601.551.511.551.581.601.571.521.561.561.611.581.531.531.551.621.601.551.511.561.591.601.571.521.561.571.621.591.541.541.561.621.611.581.561.611.681.701.661.611.651.651.701.671.651.661.681.791.771.731.681.731.741.751.721.661.701.701.741.711.651.651.661.721.701.651.601.641.661.681.651.591.631.631.681.651.591.601.611.671.651.611.561.611.631.651.621.561.611.611.671.641.581.581.611.661.641.601.551.611.621.641.621.571.601.611.661.631.581.581.601.651.631.591.541.591.601.631.601.551.591.591.641.621.571.561.581.641.631.581.531.581.591.621.591.541.581.581.641.611.561.561.581.631.611.571.521.581.591.621.591.541.571.581.641.611.561.551.571.641.621.581.521.581.591.621.581.531.571.581.631.611.551.551.571.631.611.571.521.581.591.621.591.541.571.581.641.601.551.541.571.631.621.571.521.571.591.621.591.541.571.581.631.601.551.541.571.631.611.571.521.581.591.621.591.541.571.581.641.611.551.541.571.631.611.571.521.571.581.611.581.531.561.571.631.601.541.531.561.621.611.561.521.571.581.611.581.531.561.571.641.601.551.531.571.631.611.571.521.571.581.621.581.531.561.581.641.601.551.531.571.621.611.571.521.571.581.611.581.541.561.571.631.601.551.541.591.751.741.711.651.701.701.741.701.651.671.681.771.741.711.691.721.771.751.711.651.711.701.731.701.641.671.681.731.701.641.621.651.711.691.651.591.641.641.681.641.591.621.631.691.651.601.571.611.671.651.611.561.611.611.651.621.561.591.601.661.631.581.551.591.651.631.601.541.601.601.641.611.561.591.601.651.621.581.541.591.641.631.591.541.591.601.631.611.551.581.591.651.621.571.541.581.641.631.581.531.581.591.621.601.541.571.591.641.611.561.531.581.631.621.581.531.581.581.621.591.541.571.581.641.611.561.521.581.631.621.581.531.591.591.621.601.551.581.581.651.621.571.541.591.641.631.591.541.591.601.641.611.561.581.591.661.631.581.541.591.651.641.601.541.591.601.641.621.561.591.591.661.621.581.531.591.641.631.591.541.591.601.641.611.561.581.591.651.621.571.531.591.631.621.591.531.591.591.631.601.551.571.581.651.621.571.521.581.631.621.581.531.581.601.641.601.551.581.591.651.621.571.531.581.641.631.591.541.591.601.641.611.561.581.591.661.631.581.531.591.641.621.591.531.591.591.631.601.551.571.581.641.611.561.521.581.631.621.581.531.581.591.621.601.541.561.571.641.611.561.521.571.631.621.581.531.581.591.631.601.551.561.581.651.621.571.521.581.631.621.591.531.581.591.631.601.551.571.581.651.621.581.531.581.631.631.591.531.581.581.631.601.551.571.571.641.611.561.521.571.621.611.581.521.571.581.621.591.541.561.571.631.601.551.511.561.621.611.581.521.571.581.631.601.541.561.571.641.611.561.521.571.621.621.581.531.581.581.631.601.551.571.581.651.621.571.521.581.651.651.651.631.671.681.731.691.641.651.661.721.691.661.641.691.751.751.711.651.701.701.741.701.641.661.661.731.701.641.591.641.691.681.641.581.631.631.671.651.591.611.621.681.651.601.551.611.651.651.611.561.601.611.661.631.571.591.601.661.641.591.541.591.641.641.601.551.601.611.661.631.571.581.601.661.631.581.531.591.631.631.591.541.581.591.631.601.551.561.581.641.611.571.521.571.621.621.591.531.591.581.631.601.541.561.571.641.611.561.521.571.621.621.591.541.581.591.641.611.551.561.581.661.631.581.541.591.631.631.601.551.591.601.651.621.571.581.601.661.641.601.541.601.641.641.611.561.601.601.651.621.571.581.591.651.621.581.531.591.621.621.591.541.581.591.631.611.551.561.581.651.621.581.531.581.621.621.591.541.581.591.651.611.561.571.591.651.631.581.531.591.631.641.611.551.601.601.651.621.571.571.591.651.631.581.531.591.641.641.611.561.601.611.651.631.581.591.601.661.641.591.551.601.631.641.611.561.601.601.641.621.571.571.591.651.631.591.541.591.621.631.601.541.591.601.641.621.561.571.581.651.631.581.531.591.631.631.611.551.591.601.651.621.571.571.591.661.641.591.541.601.621.641.611.561.601.601.651.621.571.581.601.661.641.591.541.601.621.631.601.551.591.611.711.681.651.651.661.721.701.661.601.661.721.761.741.721.751.751.801.771.721.721.731.771.751.701.651.701.721.731.701.641.681.691.741.711.661.661.671.731.721.671.621.671.691.711.681.621.661.671.721.691.631.631.651.711.691.651.591.651.661.691.661.601.641.641.691.661.611.601.621.681.661.611.561.621.631.651.631.571.611.621.671.641.591.581.601.661.641.601.541.601.611.631.601.551.591.601.651.621.571.561.591.641.631.581.531.591.601.631.611.551.591.591.641.611.561.561.581.651.641.591.541.601.611.641.611.561.601.601.661.631.571.561.591.651.631.581.531.591.601.631.601.551.581.591.641.621.561.551.581.641.621.581.531.581.591.621.591.551.581.581.651.621.571.561.581.641.621.581.531.581.591.621.591.541.571.581.641.611.561.541.571.641.621.591.531.591.601.621.601.541.581.591.651.621.571.551.581.641.621.581.531.591.591.621.591.541.571.581.641.601.551.541.571.631.611.571.521.571.581.611.591.531.571.571.641.601.561.541.581.631.621.581.531.581.591.621.591.541.571.591.651.621.571.551.591.651.631.591.541.591.601.631.611.551.591.591.661.631.571.551.591.651.631.591.541.591.601.631.601.551.581.581.641.611.561.541.581.631.621.581.531.581.581.621.591.541.571.581.631.601.551.531.571.621.601.571.521.581.581.621.591.541.571.581.651.621.571.541.581.641.621.581.531.591.591.621.601.551.581.581.641.611.561.531.581.641.631.591.541.591.601.631.611.551.581.591.651.621.571.541.591.641.631.591.541.591.601.631.601.551.581.591.651.621.571.541.621.781.761.721.661.721.721.741.721.661.691.691.771.741.711.671.721.761.741.711.651.711.701.741.711.651.671.681.741.711.661.611.671.721.711.671.611.661.661.691.661.611.631.641.701.671.621.571.631.681.661.621.571.621.621.661.631.571.601.611.671.641.581.541.591.641.631.591.541.591.591.631.601.551.571.581.641.611.561.521.581.631.621.581.531.581.591.631.601.551.571.581.661.631.581.531.591.651.641.601.551.601.621.661.631.581.601.611.681.651.601.551.611.661.651.611.551.601.611.641.611.561.581.591.651.631.581.541.591.641.631.591.541.591.591.631.601.551.571.581.641.611.561.521.571.621.611.571.521.571.581.621.591.541.561.591.651.621.571.531.581.641.631.591.541.591.601.641.611.561.581.591.651.631.581.531.591.641.631.601.541.591.601.641.611.561.571.591.651.621.571.531.581.631.631.591.531.581.591.631.601.551.571.581.641.611.571.521.581.621.611.581.531.581.581.621.591.541.561.571.641.611.561.521.571.621.621.581.531.571.601.641.611.561.571.581.651.631.571.531.581.631.631.591.541.591.591.641.611.561.571.581.651.621.571.521.581.621.621.581.531.581.641.751.721.671.681.691.751.721.671.621.671.761.771.741.711.751.741.781.741.701.701.711.761.741.681.631.681.731.721.691.631.671.681.721.691.641.651.661.721.701.641.591.651.701.691.651.601.651.651.691.661.611.621.641.701.671.621.581.631.681.671.631.581.631.631.671.641.591.611.621.671.651.601.551.611.651.651.611.561.611.611.651.631.571.581.601.661.631.591.541.601.641.641.611.551.601.611.651.621.571.581.591.671.641.591.551.601.641.641.611.561.601.611.651.631.571.581.601.671.651.601.551.611.641.651.611.561.601.611.651.621.571.581.601.661.631.581.541.591.631.631.601.551.591.591.651.621.561.571.581.641.621.571.521.581.611.621.591.541.581.591.641.611.561.571.581.641.621.581.521.581.611.621.591.541.581.591.641.611.561.561.581.651.631.581.531.591.621.631.601.541.591.601.651.621.561.571.591.651.621.571.531.581.601.621.591.531.571.581.631.601.551.551.571.631.611.571.521.581.601.611.581.531.571.581.631.601.551.551.571.641.621.581.531.581.611.621.601.541.581.591.641.611.571.561.591.651.631.591.541.591.621.641.611.551.591.611.661.631.571.581.601.671.651.601.551.601.621.641.611.561.601.601.651.631.571.571.591.651.631.581.531.591.601.621.601.541.581.591.641.611.561.561.581.641.621.581.531.581.591.621.591.541.571.591.641.611.551.551.571.641.621.571.521.581.591.621.591.541.571.591.641.611.561.561.581.641.621.581.531.581.601.631.601.551.581.601.661.631.581.571.601.661.641.601.551.601.611.641.611.551.591.591.641.621.561.561.591.641.621.581.531.581.591.621.601.551.581.591.691.661.671.661.691.741.731.681.621.681.701.751.721.721.741.741.811.771.721.701.731.771.751.711.661.711.721.741.711.661.691.701.751.721.661.651.681.741.721.671.621.671.671.701.671.621.651.651.701.671.621.601.641.681.671.631.571.631.631.661.631.581.621.621.681.651.591.581.621.671.651.611.561.621.621.641.621.571.601.621.671.641.601.581.611.671.661.621.571.631.631.661.631.581.621.621.681.651.591.571.611.681.661.621.561.621.631.661.631.581.611.621.671.641.591.571.611.661.641.601.551.611.611.641.611.561.591.591.661.621.571.551.591.651.631.591.541.591.601.631.611.551.581.591.651.621.571.551.591.651.631.591.541.601.611.651.621.571.601.601.661.631.581.551.601.661.641.611.551.601.621.651.631.571.601.611.671.641.581.551.601.651.641.601.551.601.601.641.611.551.581.591.651.621.571.531.581.641.621.581.521.581.591.621.591.541.571.571.631.601.551.521.571.621.611.571.521.571.581.621.591.541.571.581.641.611.561.521.581.631.621.581.531.581.591.631.601.551.571.591.651.621.571.531.581.641.631.591.531.581.591.631.601.541.571.581.641.611.561.521.581.631.621.581.521.571.581.621.591.541.561.581.641.611.561.521.571.621.611.571.521.571.591.631.601.561.581.641.751.721.661.621.681.731.721.681.621.671.701.771.741.711.731.741.791.761.711.661.711.751.741.701.641.691.701.721.701.641.661.661.731.691.641.591.651.691.681.641.581.631.631.671.641.591.611.621.671.651.601.551.611.661.651.611.561.611.611.651.621.571.591.601.661.631.581.531.591.641.631.601.541.591.621.651.631.571.591.611.671.641.581.541.601.651.641.601.551.601.601.641.611.561.581.591.661.621.581.531.591.641.631.591.541.591.601.641.611.561.571.581.651.621.571.521.581.621.621.581.531.581.591.631.601.551.561.581.641.611.571.521.571.631.621.581.531.581.601.641.611.551.571.591.661.631.581.531.591.651.641.601.551.601.611.651.631.571.591.601.661.641.591.541.601.641.641.601.551.601.601.641.611.561.581.591.651.621.581.521.581.621.621.591.541.591.601.641.611.561.571.591.651.631.581.531.591.641.631.601.551.591.601.641.611.561.571.591.651.631.581.531.581.631.641.601.541.591.601.641.621.561.571.591.651.621.581.531.581.621.621.581.531.581.581.631.601.551.561.571.641.611.561.521.571.611.611.581.531.581.581.621.601.551.561.581.651.621.581.531.581.631.631.601.551.591.611.661.631.581.591.601.671.641.601.551.601.641.651.621.561.611.611.661.631.571.581.601.661.641.591.541.591.621.631.601.541.591.591.641.611.561.561.581.641.621.601.581.641.711.711.681.621.661.661.711.681.651.661.681.771.741.711.661.711.741.731.701.651.691.701.731.711.651.661.671.731.711.661.611.661.691.701.671.611.661.661.701.671.621.621.641.691.671.621.571.631.651.661.631.581.621.621.671.641.591.591.621.671.641.601.551.611.631.641.611.561.601.611.651.621.571.581.601.651.631.591.541.601.611.631.601.551.591.601.651.611.561.571.591.651.631.591.541.591.631.641.611.561.601.611.661.631.581.581.611.661.651.601.551.601.621.641.621.561.601.601.661.621.581.571.601.651.631.581.541.591.611.631.601.551.591.591.641.611.561.561.581.641.621.581.531.581.601.621.591.541.581.591.641.611.561.551.591.651.631.591.541.591.611.641.611.551.591.611.671.631.581.581.611.661.641.601.551.601.641.661.631.571.611.611.661.631.581.571.601.651.631.591.541.591.601.631.601.551.581.591.641.611.561.561.581.641.621.581.521.581.591.621.591.541.571.581.641.611.551.551.571.631.611.571.521.571.591.611.591.531.571.591.641.611.561.561.591.651.631.591.541.591.621.651.621.561.601.621.671.641.591.581.611.671.651.611.551.611.611.641.621.561.601.601.661.631.581.571.601.651.631.591.541.601.601.631.601.551.591.591.651.621.571.561.601.651.631.601.551.601.611.641.611.561.591.611.661.631.581.561.601.651.641.591.541.601.621.641.621.561.601.611.661.641.581.571.611.661.651.601.561.611.611.641.611.561.601.601.661.631.581.561.601.651.631.601.541.601.601.641.611.561.591.601.651.631.581.551.601.651.631.591.541.601.611.641.611.561.591.601.661.631.581.561.601.651.641.601.561.621.721.761.741.681.701.721.771.741.681.651.691.771.751.721.681.731.731.761.731.671.701.701.751.731.671.631.681.721.711.661.611.671.661.701.671.611.641.651.701.671.621.581.631.681.661.631.571.631.631.661.631.581.611.621.681.651.601.561.611.671.651.611.561.611.631.661.631.581.611.621.681.651.601.561.611.671.651.611.561.621.631.671.641.591.611.621.681.651.591.561.611.671.651.611.551.611.611.651.621.571.591.601.661.631.581.531.591.641.631.591.531.591.591.631.601.551.571.581.651.621.571.531.591.641.631.591.541.591.601.641.611.561.581.601.661.631.581.541.601.651.641.601.551.601.611.651.621.561.591.591.661.631.571.531.591.641.631.591.541.591.601.631.601.551.571.591.641.621.561.521.581.621.621.581.531.581.581.631.601.541.561.581.631.611.561.521.571.621.621.571.521.571.581.621.591.541.561.571.641.611.571.521.581.651.641.611.551.601.621.661.631.581.601.611.671.641.591.541.601.651.641.601.551.601.601.641.611.561.581.591.651.621.571.52