0.11
0.12
0.12
0.12
0.11
0.11
0.12
0.12
0.12
0.11
0.12
0.12
0.12
0.12
0.12
0.12
0.12
0.13
0.13
0.13
0.13
0.13
0.13
0.13
0.13
0.14
0.13
0.13
0.13
0.13
0.13
0.14
0.14
0.14
0.14
0.14
0.16
0.17
0.17
0.17
0.18
0.18
0.18
0.18
0.18
0.19
0.19
0.20
0.21
0.22
0.22
0.24
0.23
0.24
0.24
0.24
0.25
0.26
0.26
0.26
0.26
0.26
0.27
0.27
0.26
0.26
0.26
0.25
0.24
0.24
0.24
0.24
0.23
0.23
0.24
0.24
0.24
0.23
0.25
0.25
0.25
0.25
0.25
0.25
0.24
0.24
0.23
0.25
0.24
0.23
0.23
0.23
0.23
0.23
0.23
0.23
0.22
0.22
0.22
0.22
0.22
0.21
0.22
0.22
0.21
0.21
0.20
0.20
0.21
0.21
0.22
0.21
0.21
0.21
0.20
0.20
0.19
0.19
0.20
0.20
0.20
0.20
0.20
0.20
0.20
0.19
0.19
0.19
0.19
0.19
0.19
0.19
0.19
0.18
0.18
0.18
0.18
0.19
0.19
0.19
0.19
0.20
0.19
0.19
0.19
0.19
0.19
0.19
0.19
0.20
0.20
0.20
0.20
0.19
0.19
0.19
0.19
0.19
0.19
0.19
0.19
0.20
0.20
0.20
0.20
0.19
0.19
0.20
0.20
0.20
0.19
0.19
0.19
0.19
0.19
0.19
0.19
0.19
0.18
0.18
0.18
0.18
0.18
0.19
0.20
0.20
0.20
0.20
0.20
0.20
0.20
0.20
0.19
0.20
0.19
0.19
0.18
0.19
0.19
0.19
0.18
0.19
0.18
0.18
0.18
0.18
0.18
0.18
0.18
0.18
0.18
0.18
0.19
0.21
0.21
0.20
0.22
0.21
0.21
0.21
0.21
0.20
0.20
0.20
0.20
0.20
0.21
0.21
0.21
0.21
0.21
0.21
0.21
0.20
0.20
0.20
0.20
0.19
0.20
0.19
0.19
0.20
0.19
0.20
0.20
0.19
0.20
0.21
0.21
0.22
0.21
0.21
0.21
0.20
0.20
0.21
0.21
0.21
0.20
0.20
0.20
0.20
0.20
0.20
0.19
0.19
0.18
0.18
0.19
0.19
0.19
0.19
0.19
0.18
0.17
0.17
0.17
0.17
0.17
0.17
0.17
0.18
0.18
0.19
0.19
0.19
0.20
0.20
0.20
0.21
0.21
0.21
0.21
0.21
0.21
0.21
0.22
0.23
0.22
0.22
0.22
0.22
0.21
0.21
0.21
0.22
0.21
0.21
0.20
0.20
0.20
0.21
0.21
0.20
0.20
0.20
0.20
0.20
0.20
0.19
0.19
0.19
0.19
0.19
0.19
0.19
0.19
0.20
0.20
0.20
0.21
0.20
0.21
0.22
0.23
0.27
0.32
0.35
0.34
0.38
0.40
0.40
0.38
0.38
0.38
0.38
0.37
0.36
0.36
0.37
0.38
0.37
0.36
0.40
0.43
0.45
0.44
0.45
0.49
0.54
0.54
0.56
0.62
0.72
0.75
0.74
0.77
0.79
0.83
0.90
0.92
0.91
0.93
0.94
1.04
1.11
1.09
1.12
1.14
1.14
1.11
1.24
1.33
1.31
1.45
1.55
1.53
1.57
1.59
1.58
1.62
1.75
1.80
1.79
1.84
1.85
1.78
1.76
1.74
1.70
1.68
1.68
1.68
1.76
1.79
1.80
1.77
1.78
1.79
1.74
1.76
1.75
1.71
1.67
1.63
1.60
1.58
1.53
1.49
1.44
1.40
1.41
1.39
1.34
1.41
1.44
1.40
1.38
1.38
1.35
1.32
1.33
1.30
1.26
1.29
1.42
1.48
1.48
1.43
1.42
1.38
1.39
1.47
1.47
1.47
1.47
1.43
1.37
1.33
1.30
1.26
1.23
1.19
1.17
1.15
1.13
1.10
1.07
1.04
1.02
1.01
0.98
0.96
0.94
0.91
0.89
0.87
0.83
0.82
0.80
0.79
0.78
0.81
0.80
0.78
0.75
0.73
0.71
0.69
0.66
0.65
0.65
0.63
0.60
0.58
0.57
0.56
0.54
0.53
0.51
0.50
0.48
0.47
0.46
0.44
0.43
0.43
0.42
0.41
0.40
0.40
0.40
0.39
0.38
0.38
0.37
0.37
0.35
0.35
0.36
0.37
0.38
0.38
0.37
0.37
0.38
0.38
0.40
0.39
0.38
0.41
0.40
0.41
0.39
0.39
0.40
0.41
0.40
0.39
0.39
0.40
0.41
0.41
0.40
0.40
0.40
0.42
0.43
0.43
0.43
0.43
0.43
0.45
0.46
0.44
0.44
0.44
0.44
0.44
0.43
0.43
0.42
0.42
0.43
0.43
0.43
0.43
0.43
0.42
0.42
0.41
0.40
0.40
0.40
0.41
0.40
0.40
0.40
0.40
0.40
0.40
0.40
0.39
0.38
0.39
0.39
0.38
0.37
0.37
0.37
0.38
0.38
0.37
0.36
0.36
0.36
0.35
0.34
0.34
0.33
0.33
0.32
0.31
0.31
0.30
0.29
0.29
0.28
0.28
0.27
0.27
0.26
0.26
0.25
0.25
0.25
0.25
0.25
0.25
0.25
0.25
0.25
0.25
0.24
0.24
0.25
0.24
0.23
0.24
0.23
0.23
0.23
0.23
0.22
0.22
0.22
0.22
0.21
0.21
0.21
0.21
0.22
0.21
0.20
0.20
0.20
0.21
0.20
0.20
0.20
0.20
0.20
0.20
0.20
0.21
0.22
0.21
0.21
0.21
0.21
0.21
0.21
0.22
0.22
0.21
0.21
0.21
0.21
0.20
0.22
0.21
0.21
0.21
0.20
0.20
0.20
0.20
0.20
0.19
0.19
0.19
0.18
0.18
0.18
0.18
0.18
0.18
0.19
0.19
0.19
0.20
0.19
0.19
0.19
0.19
0.20
0.20
0.19
0.19
0.19
0.19
0.20
0.19
0.19
0.20
0.19
0.19
0.19
0.20
0.19
0.19
0.19
0.19
0.19
0.19
0.19
0.19
0.19
0.18
0.18
0.18
0.18
0.18
0.18
0.18
0.18
0.18
0.17
0.17
0.17
0.17
0.17
0.17
0.17
0.17
0.18
0.19
0.19
0.19
0.19
0.19
0.19
0.19
0.19
0.19
0.19
0.19
0.19
0.18
0.19
0.19
0.19
0.19
0.19
0.19
0.20
0.20
0.20
0.21
0.22
0.22
0.22
0.23
0.23
0.23
0.23
0.22
0.22
0.22
0.22
0.22
0.22
0.22
0.22
0.22
0.24
0.25
0.27
0.26
0.25
0.25
0.25
0.24
0.24
0.24
0.25
0.24
0.24
0.24
0.23
0.23
0.23
0.23
0.23
0.22
0.23
0.23
0.23
0.22
0.22
0.22
0.23
0.23
0.22
0.22
0.22
0.23
0.24
0.23
0.24
0.24
0.24
0.24
0.24
0.24
0.24
0.24
0.24
0.24
0.24
0.23
0.23
0.23
0.23
0.23
0.22
0.22
0.23
0.22
0.22
0.22
0.22
0.22
0.22
0.22
0.22
0.22
0.22
0.21
0.21
0.21
0.21
0.21
0.22
0.22
0.23
0.25
0.30
0.37
0.38
0.38
0.38
0.39
0.41
0.43
0.43
0.43
0.45
0.46
0.46
0.48
0.48
0.48
0.49
0.49
0.47
0.46
0.45
0.44
0.43
0.43
0.42
0.42
0.42
0.40
0.40
0.40
0.40
0.40
0.41
0.41
0.42
0.40
0.43
0.51
0.66
0.75
0.75
0.74
0.72
0.76
0.80
0.78
0.80
0.87
0.87
0.90
1.03
1.25
1.37
1.40
1.58
1.75
1.86
1.90
1.95
1.94
1.90
1.86
1.81
1.80
1.95
2.09
2.02
2.00
2.13
2.14
2.08
2.03
2.01
2.08
2.07
2.05
1.98
1.94
1.89
1.83
1.78
1.72
1.72
1.73
1.69
1.63
1.63
1.65
1.59
1.65
1.64
1.67
1.66
1.64
1.60
1.56
1.52
1.55
1.53
1.52
1.51
1.46
1.44
1.41
1.42
1.39
1.35
1.38
1.56
1.57
1.64
1.62
1.58
1.53
1.49
1.47
1.44
1.39
1.34
1.34
1.30
1.36
1.34
1.37
1.34
1.30
1.26
1.21
1.16
1.13
1.09
1.06
1.03
1.02
0.99
0.97
0.95
0.92
0.90
0.88
0.86
0.83
0.81
0.78
0.76
0.74
0.73
0.71
0.69
0.66
0.66
0.66
0.65
0.63
0.61
0.60
0.58
0.57
0.55
0.54
0.53
0.51
0.49
0.49
0.48
0.47
0.46
0.45
0.44
0.44
0.43
0.42
0.41
0.40
0.39
0.38
0.37
0.37
0.36
0.35
0.34
0.34
0.34
0.34
0.34
0.34
0.34
0.34
0.33
0.33
0.34
0.34
0.33
0.32
0.34
0.34
0.34
0.33
0.33
0.33
0.33
0.34
0.34
0.33
0.33
0.35
0.36
0.35
0.34
0.33
0.33
0.32
0.31
0.32
0.32
0.32
0.32
0.32
0.32
0.32
0.31
0.31
0.31
0.31
0.31
0.30
0.30
0.30
0.31
0.30
0.29
0.29
0.29
0.29
0.28
0.28
0.28
0.28
0.27
0.27
0.27
0.27
0.26
0.26
0.25
0.25
0.25
0.25
0.25
0.24
0.25
0.24
0.24
0.23
0.23
0.23
0.23
0.23
0.23
0.22
0.22
0.23
0.23
0.23
0.22
0.22
0.22
0.22
0.23
0.24
0.25
0.25
0.26
0.26
0.28
0.28
0.28
0.29
0.29
0.30
0.29
0.30
0.29
0.28
0.29
0.28
0.28
0.27
0.27
0.27
0.27
0.27
0.26
0.25
0.25
0.25
0.24
0.24
0.24
0.24
0.24
0.23
0.23
0.23
0.23
0.23
0.22
0.22
0.23
0.23
0.23
0.22
0.23
0.23
0.23
0.23
0.24
0.24
0.23
0.23
0.23
0.23
0.23
0.23
0.23
0.23
0.23
0.24
0.25
0.26
0.26
0.26
0.25
0.25
0.25
0.25
0.25
0.25
0.25
0.24
0.24
0.24
0.25
0.25
0.25
0.25
0.25
0.24
0.25
0.24
0.24
0.24
0.24
0.24
0.24
0.24
0.24
0.23
0.24
0.24
0.25
0.24
0.24
0.24
0.24
0.24
0.24
0.24
0.23
0.24
0.23
0.24
0.24
0.23
0.24
0.24
0.23
0.23
0.23
0.23
0.23
0.23
0.23
0.24
0.23
0.23
0.23
0.23
0.24
0.24
0.24
0.24
0.24
0.24
0.23
0.24
0.24
0.24
0.24
0.24
0.24
0.24
0.24
0.24
0.23
0.23
0.23
0.24
0.23
0.23
0.23
0.23
0.23
0.23
0.23
0.23
0.22
0.22
0.22
0.22
0.22
0.22
0.22
0.22
0.22
0.22
0.22
0.22
0.23
0.22
0.22
0.22
0.23
0.23
0.23
0.23
0.23
0.22
0.22
0.23
0.22
0.23
0.23
0.23
0.23
0.23
0.23
0.22
0.22
0.22
0.22
0.22
0.22
0.22
0.22
0.22
0.22
0.22
0.22
0.22
0.22
0.22
0.22
0.22
0.22
0.22
0.21
0.21
0.21
0.21
0.21
0.20
0.20
0.20
0.20
0.21
0.21
0.21
0.21
0.20
0.20
0.21
0.20
0.19
0.19
0.19
0.20
0.19
0.19
0.20
0.20
0.20
0.21
0.21
0.20
0.20
0.20
0.20
0.20
0.20
0.19
0.20
0.20
0.20
0.19
0.20
0.20
0.20
0.21
0.21
0.21
0.21
0.21
0.22
0.22
0.21
0.21
0.21
0.21
0.21
0.21
0.21
0.21
0.21
0.20
0.20
0.20
0.20
0.20
0.20
0.20
0.19
0.19
0.19
0.19
0.19
0.19
0.19
0.19
0.19
0.20
0.20
0.19
0.19
0.19
0.19
0.19
0.19
0.19
0.19
0.19
0.18
0.18
0.18
0.18
0.18
0.19
0.18
0.19
0.19
0.19
0.20
0.20
0.20
0.20
0.21
0.31
0.46
0.60
0.61
0.60
0.59
0.57
0.62
0.62
0.71
0.80
0.80
0.83
0.87
0.91
0.95
0.93
0.90
0.87
0.86
0.91
1.06
1.20
1.31
1.29
1.25
1.24
1.29
1.27
1.34
1.47
1.59
1.57
1.65
1.77
1.80
1.81
1.91
1.90
1.92
2.06
2.35
2.39
2.52
2.62
2.56
2.51
2.44
2.37
2.36
2.32
2.28
2.29
2.25
2.21
2.16
2.14
2.10
2.06
2.02
1.99
2.04
2.00
1.97
1.98
2.00
1.98
2.02
1.96
1.91
1.85
1.79
1.78
1.72
1.65
1.62
1.65
1.61
1.55
1.52
1.51
1.50
1.50
1.45
1.40
1.40
1.49
1.54
1.55
1.51
1.52
1.49
1.45
1.41
1.37
1.38
1.43
1.42
1.37
1.33
1.30
1.26
1.22
1.18
1.15
1.20
1.27
1.27
1.24
1.25
1.21
1.18
1.14
1.10
1.06
1.02
0.99
0.96
0.96
0.96
0.93
0.94
0.96
1.01
0.99
0.99
0.96
0.97
0.98
0.96
0.93
0.90
0.88
0.86
0.83
0.81
0.78
0.75
0.74
0.72
0.71
0.69
0.66
0.65
0.64
0.63
0.62
0.61
0.60
0.58
0.57
0.56
0.54
0.53
0.51
0.50
0.49
0.47
0.46
0.45
0.45
0.44
0.43
0.43
0.42
0.42
0.40
0.39
0.38
0.37
0.36
0.36
0.35
0.34
0.34
0.34
0.35
0.36
0.36
0.37
0.38
0.37
0.36
0.37
0.37
0.36
0.36
0.35
0.37
0.37
0.38
0.37
0.37
0.36
0.37
0.36
0.36
0.35
0.35
0.34
0.35
0.35
0.34
0.34
0.36
0.37
0.39
0.39
0.38
0.40
0.41
0.41
0.41
0.40
0.40
0.40
0.39
0.41
0.40
0.40
0.40
0.40
0.40
0.39
0.38
0.38
0.41
0.43
0.44
0.43
0.42
0.44
0.44
0.45
0.44
0.44
0.44
0.44
0.46
0.46
0.45
0.44
0.43
0.43
0.43
0.42
0.42
0.42
0.43
0.42
0.41
0.40
0.40
0.41
0.40
0.40
0.39
0.39
0.38
0.37
0.36
0.36
0.36
0.36
0.36
0.36
0.35
0.34
0.34
0.33
0.33
0.32
0.31
0.31
0.30
0.29
0.29
0.29
0.28
0.28
0.27
0.27
0.27
0.27
0.26
0.26
0.26
0.26
0.25
0.25
0.25
0.25
0.24
0.25
0.25
0.25
0.26
0.28
0.27
0.27
0.26
0.26
0.25
0.25
0.25
0.24
0.25
0.25
0.25
0.24
0.25
0.25
0.25
0.25
0.24
0.24
0.24
0.24
0.24
0.24
0.24
0.24
0.24
0.24
0.24
0.25
0.24
0.24
0.23
0.23
0.23
0.24
0.24
0.23
0.23
0.23
0.22
0.23
0.23
0.23
0.23
0.23
0.24
0.23
0.24
0.26
0.25
0.25
0.25
0.25
0.25
0.24
0.25
0.25
0.24
0.24
0.24
0.24
0.24
0.23
0.23
0.23
0.23
0.25
0.25
0.26
0.26
0.26
0.25
0.26
0.26
0.26
0.25
0.25
0.25
0.25
0.25
0.25
0.25
0.25
0.24
0.24
0.23
0.23
0.23
0.23
0.24
0.25
0.25
0.24
0.24
0.23
0.23
0.22
0.23
0.23
0.23
0.22
0.22
0.22
0.23
0.23
0.24
0.25
0.25
0.25
0.24
0.24
0.24
0.25
0.24
0.24
0.24
0.24
0.24
0.24
0.25
0.26
0.26
0.26
0.27
0.26
0.27
0.26
0.26
0.26
0.26
0.26
0.26
0.26
0.26
0.26
0.25
0.25
0.25
0.25
0.24
0.24
0.24
0.25
0.24
0.26
0.26
0.26
0.27
0.28
0.29
0.29
0.29
0.30
0.29
0.29
0.28
0.28
0.27
0.26
0.26
0.25
0.25
0.26
0.26
0.25
0.25
0.25
0.27
0.27
0.27
0.27
0.27
0.27
0.27
0.28
0.28
0.27
0.27
0.27
0.26
0.26
0.26
0.26
0.26
0.26
0.26
0.26
0.26
0.26
0.26
0.26
0.25
0.25
0.25
0.25
0.25
0.25
0.25
0.26
0.26
0.27
0.27
0.27
0.27
0.28
0.30
0.31
0.31
0.33
0.33
0.33
0.32
0.32
0.32
0.31
0.32
0.34
0.35
0.35
0.35
0.36
0.36
0.35
0.39
0.43
0.46
0.48
0.52
0.54
0.54
0.52
0.51
0.49
0.48
0.47
0.45
0.45
0.44
0.43
0.46
0.53
0.60
0.60
0.60
0.62
0.61
0.64
0.80
0.95
0.96
0.97
1.01
1.00
1.02
1.01
1.00
1.00
1.02
1.13
1.35
1.49
1.45
1.42
1.38
1.39
1.45
1.57
1.70
1.70
1.64
1.61
1.61
1.55
1.56
1.57
1.54
1.56
1.54
1.50
1.59
1.67
1.70
1.75
1.77
1.72
1.74
1.81
1.91
1.91
1.95
1.93
1.92
1.87
1.86
1.90
1.85
1.79
1.76
1.75
1.69
1.63
1.58
1.52
1.48
1.47
1.53
1.53
1.49
1.45
1.42
1.43
1.39
1.36
1.34
1.31
1.28
1.24
1.20
1.23
1.24
1.20
1.17
1.16
1.13
1.13
1.14
1.25
1.25
1.28
1.29
1.27
1.23
1.28
1.30
1.28
1.25
1.23
1.19
1.15
1.11
1.07
1.04
1.01
0.98
0.97
0.99
1.02
1.02
1.04
1.03
1.00
0.97
0.94
0.92
0.92
0.89
0.89
0.86
0.85
0.82
0.80
0.78
0.77
0.76
0.74
0.73
0.73
0.71
0.70
0.68
0.66
0.64
0.65
0.63
0.61
0.60
0.60
0.58
0.58
0.60
0.58
0.60
0.60
0.58
0.57
0.55
0.53
0.53
0.51
0.50
0.48
0.46
0.45
0.44
0.43
0.43
0.42
0.41
0.40
0.39
0.38
0.37
0.38
0.39
0.38
0.38
0.38
0.37
0.36
0.36
0.36
0.36
0.35
0.35
0.35
0.35
0.36
0.37
0.38
0.39
0.39
0.39
0.40
0.39
0.39
0.38
0.38
0.38
0.38
0.38
0.39
0.40
0.40
0.39
0.39
0.41
0.42
0.43
0.43
0.43
0.44
0.45
0.45
0.44
0.43
0.43
0.42
0.42
0.44
0.43
0.42
0.43
0.43
0.43
0.41
0.40
0.41
0.42
0.41
0.40
0.39
0.39
0.40
0.39
0.39
0.38
0.38
0.38
0.40
0.39
0.38
0.38
0.40
0.40
0.41
0.41
0.40
0.40
0.41
0.41
0.42
0.41
0.40
0.39
0.38
0.38
0.37
0.37
0.36
0.37
0.38
0.38
0.38
0.37
0.38
0.39
0.38
0.38
0.39
0.38
0.38
0.37
0.37
0.37
0.37
0.36
0.36
0.36
0.36
0.35
0.34
0.34
0.34
0.33
0.32
0.32
0.32
0.31
0.30
0.30
0.30
0.29
0.28
0.28
0.28
0.28
0.27
0.27
0.26
0.26
0.26
0.26
0.25
0.25
0.26
0.27
0.27
0.28
0.28
0.27
0.27
0.27
0.27
0.26
0.26
0.26
0.26
0.25
0.25
0.24
0.24
0.25
0.24
0.24
0.24
0.23
0.23
0.23
0.23
0.23
0.23
0.23
0.23
0.23
0.23
0.24
0.24
0.25
0.25
0.26
0.26
0.26
0.26
0.26
0.25
0.26
0.25
0.25
0.25
0.25
0.25
0.25
0.25
0.25
0.25
0.24
0.25
0.24
0.24
0.25
0.25
0.26
0.27
0.27
0.27
0.27
0.26
0.26
0.26
0.27
0.28
0.28
0.27
0.27
0.26
0.26
0.26
0.25
0.25
0.25
0.25
0.26
0.28
0.28
0.27
0.28
0.29
0.30
0.30
0.31
0.30
0.31
0.32
0.31
0.32
0.32
0.32
0.31
0.30
0.30
0.29
0.30
0.29
0.28
0.28
0.28
0.27
0.27
0.26
0.27
0.27
0.28
0.27
0.27
0.26
0.26
0.26
0.26
0.25
0.25
0.25
0.25
0.25
0.25
0.26
0.26
0.25
0.25
0.25
0.25
0.25
0.25
0.25
0.25
0.26
0.26
0.25
0.25
0.25
0.26
0.26
0.26
0.26
0.25
0.26
0.26
0.26
0.26
0.26
0.26
0.26
0.26
0.25
0.27
0.26
0.27
0.26
0.25
0.26
0.25
0.25
0.25
0.25
0.25
0.24
0.24
0.24
0.24
0.24
0.23
0.24
0.25
0.26
0.26
0.27
0.27
0.27
0.27
0.27
0.27
0.26
0.26
0.26
0.27
0.28
0.28
0.36
0.45
0.51
0.55
0.61
0.65
0.63
0.61
0.60
0.60
0.58
0.57
0.55
0.55
0.54
0.53
0.52
0.50
0.50
0.49
0.47
0.47
0.46
0.47
0.47
0.45
0.45
0.44
0.46
0.50
0.52
0.52
0.55
0.58
0.56
0.55
0.55
0.63
0.72
0.76
0.77
0.78
0.80
0.82
0.80
0.78
0.78
0.86
0.93
0.97
0.95
0.94
0.93
0.92
0.90
0.89
0.87
0.87
0.86
0.85
0.83
0.80
0.78
0.80
0.89
0.92
0.92
0.92
0.90
0.90
0.91
0.92
0.91
0.92
0.91
0.91
0.89
0.90
0.92
0.95
1.01
1.03
1.04
1.05
1.05
1.07
1.04
1.18
1.22
1.25
1.32
1.30
1.26
1.26
1.30
1.26
1.22
1.19
1.16
1.19
1.25
1.23
1.23
1.29
1.25
1.21
1.23
1.22
1.22
1.20
1.18
1.17
1.19
1.17
1.13
1.21
1.22
1.20
1.21
1.26
1.32
1.35
1.39
1.39
1.36
1.37
1.35
1.40
1.36
1.33
1.30
1.30
1.29
1.25
1.31
1.29
1.33
1.30
1.26
1.23
1.38
1.48
1.49
1.49
1.51
1.47
1.42
1.37
1.32
1.29
1.25
1.23
1.22
1.19
1.18
1.17
1.17
1.17
1.13
1.09
1.09
1.10
1.25
1.27
1.33
1.36
1.33
1.31
1.28
1.23
1.20
1.31
1.41
1.44
1.49
1.50
1.46
1.41
1.36
1.31
1.27
1.22
1.17
1.13
1.09
1.05
1.02
0.98
0.95
0.91
0.88
0.86
0.83
0.82
0.80
0.78
0.78
0.75
0.73
0.71
0.69
0.67
0.65
0.64
0.62
0.61
0.59
0.60
0.58
0.58
0.56
0.56
0.55
0.54
0.52
0.52
0.50
0.49
0.48
0.47
0.46
0.45
0.45
0.46
0.44
0.44
0.44
0.43
0.43
0.43
0.42
0.42
0.40
0.41
0.41
0.41
0.40
0.41
0.41
0.41
0.39
0.38
0.37
0.37
0.38
0.38
0.37
0.37
0.38
0.39
0.40
0.41
0.40
0.41
0.42
0.42
0.41
0.40
0.40
0.39
0.39
0.37
0.37
0.36
0.35
0.35
0.36
0.38
0.39
0.39
0.39
0.39
0.39
0.38
0.37
0.36
0.36
0.35
0.34
0.34
0.33
0.33
0.33
0.32
0.33
0.33
0.33
0.32
0.32
0.32
0.32
0.31
0.31
0.30
0.31
0.32
0.32
0.31
0.30
0.30
0.29
0.29
0.28
0.28
0.27
0.27
0.28
0.28
0.28
0.28
0.30
0.30
0.29
0.29
0.29
0.28
0.28
0.27
0.27
0.27
0.26
0.25
0.25
0.25
0.24
0.24
0.24
0.25
0.24
0.24
0.24
0.23
0.24
0.23
0.23
0.23
0.22
0.23
0.23
0.23
0.23
0.23
0.24
0.24
0.25
0.24
0.25
0.26
0.27
0.27
0.27
0.28
0.29
0.29
0.29
0.29
0.29
0.29
0.32
0.31
0.31
0.31
0.32
0.32
0.32
0.32
0.32
0.31
0.31
0.30
0.30
0.31
0.30
0.30
0.30
0.29
0.29
0.28
0.28
0.29
0.29
0.28
0.28
0.28
0.29
0.29
0.29
0.29
0.28
0.28
0.28
0.28
0.28
0.27
0.27
0.27
0.27
0.27
0.27
0.27
0.27
0.26
0.27
0.26
0.26
0.27
0.26
0.26
0.26
0.25
0.26
0.26
0.26
0.26
0.27
0.28
0.28
0.28
0.29
0.29
0.31
0.30
0.30
0.30
0.29
0.29
0.30
0.30
0.29
0.29
0.29
0.29
0.29
0.29
0.29
0.29
0.29
0.30
0.29
0.28
0.29
0.29
0.28
0.28
0.28
0.29
0.28
0.28
0.28
0.28
0.28
0.27
0.27
0.27
0.28
0.27
0.26
0.26
0.25
0.26
0.27
0.28
0.30
0.30
0.29
0.29
0.29
0.29
0.28
0.28
0.28
0.28
0.28
0.29
0.29
0.30
0.29
0.31
0.32
0.32
0.32
0.31
0.30
0.30
0.29
0.30
0.29
0.29
0.29
0.29
0.28
0.28
0.30
0.29
0.31
0.32
0.31
0.31
0.30
0.29
0.29
0.29
0.29
0.28
0.29
0.29
0.28
0.29
0.29
0.29
0.28
0.28
0.28
0.28
0.27
0.27
0.27
0.27
0.27
0.29
0.29
0.29
0.28
0.28
0.28
0.28
0.28
0.27
0.27
0.27
0.27
0.26
0.27
0.27
0.30
0.30
0.31
0.30
0.29
0.31
0.31
0.30
0.31
0.30
0.30
0.31
0.32
0.32
0.31
0.31
0.32
0.31
0.31
0.30
0.29
0.29
0.28
0.27
0.27
0.27
0.27
0.27
0.26
0.26
0.26
0.26
0.27
0.27
0.27
0.27
0.27
0.27
0.27
0.26
0.26
0.26
0.26
0.27
0.26
0.25
0.26
0.26
0.26
0.27
0.26
0.26
0.26
0.27
0.27
0.27
0.27
0.27
0.27
0.27
0.27
0.26
0.26
0.26
0.27
0.27
0.26
0.26
0.25
0.25
0.25
0.25
0.24
0.24
0.25
0.25
0.25
0.25
0.26
0.25
0.26
0.26
0.25
0.26
0.25
0.26
0.25
0.25
0.25
0.24
0.24
0.25
0.24
0.25
0.24
0.25
0.25
0.24
0.25
0.25
0.25
0.25
0.25
0.24
0.24
0.24
0.24
0.24
0.23
0.23
0.23
0.23
0.23
0.23
0.23
0.22
0.22
0.23
0.23
0.22
0.22
0.22
0.23
0.23
0.22
0.22
0.23
0.25
0.25
0.25
0.25
0.25
0.25
0.25
0.26
0.25
0.25
0.25
0.25
0.26
0.25
0.25
0.24
0.24
0.25
0.24
0.24
0.24
0.24
0.24
0.24
0.24
0.23
0.23
0.23
0.23
0.23
0.22
0.22
0.22
0.22
0.22
0.22
0.22
0.22
0.23
0.22
0.22
0.22
0.22
0.23
0.23
0.23
0.23
0.23
0.23
0.23
0.23
0.22
0.22
0.23
0.22
0.22
0.22
0.22
0.22
0.22
0.22
0.22
0.23
0.24
0.24
0.25
0.25
0.25
0.24
0.24
0.24
0.24
0.24
0.24
0.24
0.24
0.24
0.23
0.25
0.27
0.26
0.26
0.28
0.28
0.28
0.27
0.27
0.27
0.26
0.26
0.26
0.27
0.27
0.27
0.26
0.26
0.26
0.26
0.25
0.25
0.25
0.24
0.25
0.25
0.25
0.25
0.24
0.24
0.24
0.23
0.23
0.22
0.23
0.23
0.23
0.23
0.24
0.23
0.24
0.24
0.24
0.24
0.24
0.24
0.24
0.24
0.25
0.25
0.25
0.25
0.25
0.24
0.25
0.24
0.24
0.23
0.23
0.23
0.23
0.23
0.24
0.24
0.24
0.25
0.26
0.25
0.26
0.25
0.25
0.25
0.24
0.25
0.25
0.26
0.26
0.26
0.27
0.28
0.29
0.29
0.29
0.29
0.29
0.28
0.28
0.28
0.28
0.29
0.29
0.28
0.30
0.30
0.31
0.31
0.32
0.32
0.32
0.33
0.39
0.41
0.41
0.41
0.45
0.52
0.59
0.61
0.65
0.67
0.70
0.71
0.70
0.71
0.69
0.66
0.65
0.63
0.61
0.60
0.58
0.57
0.55
0.55
0.54
0.57
0.60
0.68
0.77
0.90
1.08
1.21
1.28
1.35
1.49
1.54
1.51
1.57
1.62
1.92
2.14
2.16
2.10
2.05
1.97
1.99
2.01
2.08
2.17
2.14
2.12
2.13
2.09
2.12
2.11
2.17
2.14
2.08
2.03
2.03
2.04
1.99
2.02
2.10
2.03
2.13
2.15
2.13
2.16
2.09
2.03
1.98
1.98
1.99
2.05
2.05
1.98
2.00
1.96
1.89
1.85
1.79
1.73
1.74
1.77
1.79
1.76
1.74
1.70
1.69
1.67
1.65
1.64
1.64
1.61
1.56
1.51
1.48
1.44
1.39
1.35
1.39
1.48
1.50
1.46
1.42
1.38
1.36
1.33
1.31
1.30
1.26
1.22
1.19
1.15
1.14
1.13
1.11
1.08
1.04
1.02
0.98
0.95
0.94
0.92
0.89
0.86
0.87
0.87
0.86
0.94
1.05
1.04
1.15
1.20
1.20
1.18
1.14
1.10
1.08
1.08
1.06
1.03
1.01
0.99
0.95
0.92
0.90
0.87
0.85
0.82
0.80
0.78
0.77
0.74
0.72
0.71
0.69
0.67
0.65
0.63
0.62
0.60
0.58
0.56
0.55
0.53
0.52
0.50
0.49
0.50
0.50
0.49
0.48
0.46
0.46
0.45
0.45
0.45
0.46
0.44
0.44
0.43
0.45
0.44
0.43
0.43
0.42
0.43
0.42
0.41
0.40
0.40
0.39
0.39
0.38
0.38
0.38
0.39
0.41
0.43
0.43
0.43
0.43
0.43
0.42
0.41
0.40
0.42
0.43
0.43
0.43
0.41
0.43
0.43
0.43
0.43
0.43
0.43
0.43
0.44
0.45
0.44
0.43
0.43
0.43
0.43
0.43
0.42
0.43
0.44
0.43
0.44
0.43
0.44
0.42
0.41
0.42
0.42
0.42
0.42
0.41
0.41
0.40
0.39
0.41
0.42
0.42
0.42
0.40
0.42
0.43
0.42
0.41
0.40
0.40
0.40
0.40
0.39
0.38
0.38
0.38
0.38
0.38
0.37
0.37
0.36
0.36
0.36
0.36
0.34
0.34
0.34
0.33
0.33
0.33
0.34
0.34
0.34
0.36
0.37
0.36
0.35
0.34
0.33
0.33
0.33
0.32
0.32
0.32
0.32
0.31
0.31
0.30
0.30
0.29
0.30
0.30
0.30
0.30
0.31
0.31
0.32
0.32
0.33
0.33
0.33
0.33
0.33
0.32
0.31
0.31
0.31
0.31
0.32
0.31
0.31
0.31
0.31
0.32
0.32
0.31
0.31
0.31
0.31
0.31
0.31
0.31
0.30
0.30
0.29
0.29
0.29
0.30
0.30
0.32
0.32
0.32
0.33
0.33
0.34
0.33
0.32
0.31
0.31
0.31
0.31
0.30
0.30
0.30
0.30
0.28
0.28
0.28
0.27
0.27
0.27
0.26
0.26
0.26
0.26
0.27
0.26
0.26
0.25
0.25
0.25
0.26
0.26
0.25
0.25
0.25
0.26
0.26
0.25
0.25
0.25
0.25
0.25
0.25
0.26
0.27
0.26
0.27
0.26
0.26
0.26
0.25
0.26
0.26
0.27
0.28
0.29
0.29
0.29
0.28
0.27
0.27
0.28
0.28
0.27
0.27
0.27
0.27
0.27
0.27
0.27
0.28
0.28
0.30
0.31
0.33
0.33
0.33
0.32
0.32
0.33
0.32
0.32
0.31
0.31
0.30
0.30
0.31
0.31
0.31
0.30
0.30
0.30
0.30
0.30
0.29
0.29
0.28
0.27
0.27
0.27
0.27
0.26
0.26
0.27
0.27
0.27
0.26
0.26
0.26
0.27
0.28
0.28
0.28
0.28
0.27
0.28
0.27
0.28
0.27
0.27
0.28
0.28
0.27
0.27
0.27
0.26
0.27
0.26
0.27
0.29
0.28
0.28
0.28
0.28
0.28
0.29
0.29
0.29
0.29
0.31
0.30
0.29
0.31
0.31
0.31
0.31
0.31
0.32
0.33
0.34
0.34
0.33
0.34
0.33
0.33
0.33
0.32
0.32
0.32
0.32
0.32
0.35
0.34
0.34
0.33
0.32
0.31
0.31
0.31
0.30
0.30
0.29
0.28
0.29
0.28
0.28
0.28
0.28
0.28
0.30
0.30
0.30
0.31
0.33
0.32
0.32
0.34
0.33
0.32
0.32
0.32
0.32
0.31
0.31
0.31
0.31
0.31
0.30
0.30
0.30
0.30
0.30
0.30
0.30
0.31
0.32
0.32
0.33
0.33
0.35
0.34
0.33
0.33
0.33
0.32
0.32
0.33
0.33
0.33
0.33
0.33
0.33
0.33
0.32
0.32
0.32
0.32
0.32
0.31
0.31
0.30
0.30
0.30
0.29
0.29
0.29
0.28
0.28
0.28
0.27
0.29
0.29
0.29
0.28
0.28
0.28
0.28
0.28
0.28
0.27
0.27
0.27
0.27
0.27
0.27
0.27
0.27
0.27
0.27
0.27
0.26
0.26
0.25
0.26
0.28
0.28
0.27
0.26
0.26
0.25
0.26
0.26
0.26
0.26
0.26
0.26
0.26
0.26
0.25
0.25
0.26
0.25
0.25
0.25
0.26
0.25
0.26
0.25
0.25
0.24
0.24
0.25
0.25
0.24
0.24
0.25
0.25
0.25
0.25
0.24
0.24
0.24
0.24
0.24
0.23
0.23
0.23
0.25
0.24
0.24
0.24
0.24
0.25
0.24
0.25
0.25
0.24
0.25
0.25
0.25
0.25
0.24
0.24
0.24
0.23
0.24
0.24
0.24
0.25
0.24
0.24
0.24
0.24
0.24
0.24
0.23
0.24
0.24
0.24
0.25
0.25
0.24
0.24
0.26
0.36
0.44
0.48
0.51
0.57
0.56
0.58
0.56
0.56
0.57
0.57
0.57
0.56
0.56
0.55
0.55
0.54
0.54
0.52
0.52
0.53
0.57
0.59
0.57
0.56
0.59
0.67
0.76
0.80
0.78
0.76
0.78
0.83
0.81
0.80
0.78
0.80
0.81
0.79
0.78
0.81
0.80
0.82
0.79
0.82
0.87
0.87
0.90
0.89
1.00
1.11
1.12
1.17
1.23
1.24
1.28
1.27
1.31
1.42
1.49
1.55
1.53
1.61
1.64
1.62
1.66
1.73
1.72
1.67
1.64
1.65
1.67
1.70
1.67
1.62
1.59
1.57
1.52
1.49
1.46
1.42
1.37
1.34
1.30
1.28
1.34
1.36
1.36
1.34
1.32
1.28
1.26
1.21
1.17
1.21
1.28
1.26
1.25
1.24
1.21
1.19
1.15
1.18
1.18
1.26
1.34
1.34
1.36
1.40
1.39
1.34
1.33
1.31
1.27
1.23
1.20
1.15
1.14
1.16
1.25
1.27
1.23
1.22
1.20
1.18
1.17
1.16
1.12
1.09
1.08
1.04
1.01
0.98
0.95
0.92
0.89
0.89
0.87
0.85
0.82
0.81
0.78
0.76
0.74
0.72
0.71
0.69
0.67
0.65
0.64
0.62
0.60
0.58
0.56
0.55
0.55
0.53
0.52
0.50
0.48
0.47
0.46
0.45
0.44
0.43
0.43
0.43
0.42
0.41
0.41
0.41
0.40
0.39
0.39
0.40
0.39
0.38
0.39
0.39
0.39
0.39
0.38
0.38
0.38
0.37
0.38
0.37
0.37
0.37
0.37
0.38
0.38
0.37
0.37
0.36
0.36
0.38
0.38
0.39
0.39
0.39
0.41
0.40
0.40
0.40
0.41
0.43
0.42
0.41
0.40
0.41
0.41
0.40
0.40
0.39
0.40
0.39
0.40
0.39
0.38
0.39
0.39
0.41
0.41
0.41
0.40
0.41
0.40
0.40
0.39
0.38
0.37
0.38
0.38
0.38
0.37
0.37
0.37
0.36
0.36
0.35
0.36
0.35
0.34
0.34
0.33
0.33
0.32
0.31
0.33
0.34
0.33
0.33
0.32
0.32
0.32
0.31
0.31
0.31
0.32
0.32
0.34
0.35
0.35
0.37
0.39
0.39
0.39
0.40
0.41
0.42
0.41
0.40
0.40
0.39
0.38
0.38
0.37
0.36
0.36
0.36
0.37
0.37
0.36
0.35
0.34
0.34
0.33
0.33
0.32
0.35
0.34
0.33
0.33
0.32
0.32
0.31
0.31
0.31
0.30
0.30
0.29
0.29
0.29
0.29
0.28
0.28
0.28
0.28
0.27
0.27
0.27
0.27
0.27
0.26
0.26
0.26
0.25
0.25
0.25
0.26
0.26
0.26
0.25
0.25
0.25
0.25
0.26
0.25
0.25
0.25
0.24
0.25
0.25
0.26
0.25
0.25
0.25
0.25
0.25
0.25
0.24
0.25
0.24
0.24
0.25
0.25
0.25
0.26
0.26
0.27
0.27
0.26
0.28
0.27
0.27
0.27
0.26
0.26
0.26
0.25
0.26
0.25
0.25
0.25
0.24
0.24
0.24
0.24
0.24
0.25
0.25
0.25
0.25
0.24
0.24
0.24
0.24
0.24
0.24
0.23
0.23
0.23
0.24
0.24
0.25
0.24
0.25
0.25
0.25
0.24
0.25
0.24
0.24
0.25
0.25
0.24
0.25
0.24
0.24
0.24
0.24
0.24
0.23
0.24
0.24
0.24
0.24
0.24
0.23
0.23
0.23
0.24
0.26
0.27
0.27
0.27
0.27
0.27
0.26
0.26
0.27
0.28
0.28
0.29
0.30
0.29
0.30
0.31
0.32
0.32
0.31
0.30
0.30
0.29
0.28
0.27
0.28
0.28
0.27
0.27
0.26
0.26
0.26
0.25
0.25
0.25
0.24
0.25
0.24
0.25
0.25
0.25
0.25
0.25
0.25
0.25
0.25
0.25
0.25
0.25
0.24
0.24
0.24
0.24
0.25
0.24
0.24
0.24
0.24
0.23
0.25
0.26
0.26
0.26
0.26
0.26
0.26
0.26
0.25
0.25
0.26
0.25
0.26
0.27
0.29
0.29
0.30
0.31
0.32
0.32
0.31
0.31
0.31
0.30
0.30
0.30
0.29
0.30
0.30
0.32
0.32
0.31
0.30
0.30
0.30
0.30
0.31
0.31
0.31
0.31
0.30
0.31
0.30
0.32
0.32
0.31
0.31
0.30
0.30
0.29
0.28
0.28
0.28
0.28
0.27
0.27
0.26
0.26
0.26
0.26
0.28
0.27
0.27
0.26
0.26
0.26
0.25
0.25
0.24
0.24
0.24
0.24
0.23
0.23
0.23
0.22
0.24
0.25
0.25
0.26
0.28
0.29
0.29
0.30
0.30
0.31
0.31
0.31
0.31
0.31
0.31
0.30
0.30
0.30
0.30
0.30
0.29
0.29
0.28
0.29
0.30
0.29
0.29
0.29
0.29
0.29
0.30
0.31
0.31
0.30
0.30
0.29
0.29
0.29
0.28
0.28
0.29
0.27
0.27
0.27
0.27
0.27
0.28
0.28
0.28
0.28
0.28
0.28
0.29
0.31
0.30
0.30
0.29
0.29
0.32
0.35
0.37
0.38
0.37
0.36
0.37
0.39
0.40
0.41
0.43
0.44
0.44
0.45
0.46
0.46
0.45
0.46
0.45
0.46
0.49
0.54
0.54
0.53
0.52
0.54
0.58
0.60
0.64
0.63
0.63
0.65
0.68
0.72
0.72
0.75
0.79
0.87
0.88
0.87
0.92
1.02
1.01
1.01
1.09
1.31
1.54
1.52
1.56
1.51
1.52
1.55
1.68
1.70
1.63
1.63
1.89
1.96
1.92
1.93
1.87
1.83
1.78
1.75
1.72
1.69
1.70
1.95
2.00
1.97
2.01
2.03
2.00
1.95
1.90
1.87
1.83
1.88
1.91
1.85
1.83
1.79
1.72
1.70
1.66
1.70
1.69
1.64
1.62
1.60
1.62
1.60
1.58
1.58
1.61
1.56
1.61
1.62
1.59
1.54
1.51
1.59
1.58
1.61
1.60
1.70
1.66
1.68
1.74
1.70
1.67
1.65
1.61
1.59
1.55
1.53
1.49
1.49
1.46
1.42
1.43
1.40
1.42
1.43
1.43
1.46
1.43
1.40
1.40
1.38
1.36
1.31
1.27
1.22
1.18
1.14
1.11
1.09
1.07
1.03
1.00
0.98
1.00
0.98
0.96
0.97
0.99
1.00
1.02
0.99
0.98
0.96
0.94
0.92
0.91
0.89
0.90
0.88
0.90
0.90
0.89
0.88
0.85
0.83
0.79
0.76
0.73
0.71
0.69
0.67
0.64
0.63
0.61
0.59
0.57
0.55
0.55
0.53
0.52
0.50
0.50
0.48
0.47
0.46
0.45
0.44
0.43
0.42
0.41
0.40
0.39
0.42
0.43
0.43
0.42
0.41
0.41
0.39
0.38
0.37
0.37
0.36
0.37
0.37
0.36
0.36
0.35
0.35
0.36
0.35
0.34
0.34
0.33
0.33
0.33
0.32
0.32
0.33
0.33
0.32
0.32
0.31
0.30
0.30
0.29
0.29
0.28
0.28
0.28
0.29
0.28
0.28
0.27
0.28
0.28
0.28
0.27
0.27
0.27
0.27
0.26
0.27
0.26
0.26
0.26
0.25
0.25
0.27
0.26
0.26
0.26
0.26
0.25
0.25
0.24
0.24
0.24
0.24
0.24
0.23
0.24
0.24
0.24
0.25
0.25
0.24
0.24
0.24
0.26
0.26
0.25
0.26
0.29
0.31
0.30
0.30
0.30
0.30
0.29
0.30
0.30
0.29
0.28
0.28
0.28
0.28
0.27
0.28
0.28
0.28
0.27
0.27
0.27
0.26
0.26
0.25
0.25
0.25
0.25
0.25
0.24
0.24
0.24
0.24
0.24
0.25
0.24
0.24
0.24
0.25
0.27
0.26
0.26
0.26
0.27
0.28
0.28
0.27
0.27
0.27
0.26
0.26
0.25
0.26
0.25
0.25
0.27
0.26
0.26
0.28
0.28
0.29
0.29
0.29
0.28
0.29
0.29
0.28
0.28
0.28
0.29
0.28
0.29
0.31
0.31
0.31
0.30
0.30
0.30
0.29
0.28
0.29
0.28
0.29
0.29
0.29
0.29
0.30
0.31
0.30
0.30
0.29
0.29
0.28
0.28
0.27
0.28
0.27
0.27
0.27
0.27
0.27
0.27
0.28
0.28
0.29
0.28
0.28
0.28
0.27
0.28
0.27
0.28
0.27
0.26
0.26
0.27
0.26
0.26
0.26
0.26
0.25
0.25
0.25
0.25
0.25
0.24
0.24
0.24
0.24
0.24
0.24
0.23
0.24
0.23
0.23
0.25
0.26
0.26
0.25
0.26
0.26
0.26
0.25
0.24
0.26
0.27
0.26
0.26
0.26
0.26
0.26
0.27
0.27
0.27
0.27
0.26
0.26
0.26
0.26
0.27
0.26
0.28
0.28
0.29
0.30
0.31
0.31
0.31
0.33
0.32
0.33
0.32
0.31
0.30
0.31
0.30
0.31
0.32
0.32
0.32
0.31
0.31
0.31
0.31
0.30
0.30
0.29
0.29
0.28
0.28
0.29
0.30
0.30
0.31
0.30
0.30
0.30
0.29
0.29
0.29
0.28
0.28
0.27
0.27
0.27
0.27
0.27
0.27
0.27
0.27
0.29
0.29
0.29
0.28
0.28
0.27
0.27
0.26
0.26
0.26
0.27
0.26
0.26
0.25
0.25
0.24
0.25
0.25
0.24
0.24
0.24
0.23
0.24
0.23
0.23
0.23
0.23
0.23
0.23
0.23
0.23
0.23
0.23
0.23
0.23
0.23
0.23
0.22
0.23
0.22
0.23
0.22
0.22
0.22
0.22
0.22
0.22
0.22
0.21
0.22
0.22
0.22
0.22
0.22
0.22
0.22
0.22
0.22
0.22
0.23
0.23
0.24
0.24
0.24
0.24
0.24
0.24
0.23
0.24
0.24
0.24
0.24
0.23
0.23
0.23
0.23
0.23
0.23
0.23
0.23
0.26
0.27
0.27
0.26
0.27
0.28
0.29
0.29
0.28
0.28
0.28
0.28
0.27
0.27
0.27
0.26
0.26
0.26
0.25
0.26
0.26
0.27
0.27
0.27
0.26
0.26
0.26
0.25
0.26
0.25
0.25
0.25
0.25
0.25
0.25
0.27
0.26
0.25
0.26
0.26
0.26
0.26
0.25
0.25
0.25
0.25
0.25
0.25
0.25
0.25
0.25
0.25
0.26
0.26
0.25
0.25
0.27
0.27
0.26
0.26
0.26
0.26
0.26
0.25
0.27
0.27
0.28
0.28
0.30
0.29
0.32
0.37
0.38
0.39
0.39
0.45
0.53
0.53
0.54
0.54
0.55
0.56
0.56
0.60
0.60
0.60
0.58
0.62
0.64
0.62
0.62
0.65
0.63
0.66
0.70
0.69
0.71
0.81
0.89
0.93
0.95
0.95
0.99
1.11
1.17
1.16
1.24
1.28
1.30
1.29
1.35
1.36
1.44
1.54
1.53
1.57
1.52
1.57
1.68
1.64
1.64
1.70
1.74
1.75
1.75
1.70
1.63
1.60
1.57
1.72
1.75
1.75
1.76
1.70
1.65
1.66
1.61
1.55
1.58
1.69
1.67
1.62
1.56
1.51
1.48
1.49
1.49
1.46
1.47
1.52
1.53
1.49
1.51
1.54
1.50
1.55
1.56
1.68
1.68
1.75
1.77
1.87
1.88
1.83
1.80
1.83
1.78
1.77
1.72
1.69
1.68
1.64
1.66
1.63
1.68
1.65
1.61
1.57
1.52
1.46
1.42
1.40
1.37
1.34
1.33
1.39
1.47
1.49
1.51
1.56
1.61
1.59
1.53
1.52
1.52
1.48
1.42
1.39
1.37
1.37
1.32
1.27
1.22
1.22
1.31
1.30
1.27
1.25
1.23
1.22
1.20
1.19
1.17
1.14
1.09
1.06
1.03
1.00
0.97
0.94
0.92
0.90
0.87
0.85
0.83
0.80
0.78
0.76
0.74
0.73
0.71
0.69
0.68
0.66
0.65
0.62
0.61
0.59
0.58
0.55
0.53
0.52
0.51
0.50
0.49
0.50
0.49
0.48
0.46
0.46
0.44
0.43
0.43
0.43
0.43
0.42
0.41
0.40
0.39
0.38
0.37
0.37
0.36
0.36
0.35
0.35
0.35
0.35
0.35
0.33
0.34
0.36
0.36
0.34
0.34
0.34
0.35
0.35
0.36
0.35
0.35
0.34
0.33
0.34
0.34
0.34
0.33
0.33
0.33
0.33
0.33
0.34
0.34
0.33
0.32
0.32
0.31
0.31
0.31
0.30
0.29
0.29
0.29
0.28
0.29
0.31
0.31
0.31
0.32
0.34
0.33
0.33
0.32
0.32
0.31
0.31
0.31
0.30
0.31
0.30
0.30
0.29
0.30
0.30
0.29
0.29
0.29
0.29
0.28
0.28
0.28
0.29
0.28
0.28
0.27
0.27
0.27
0.26
0.25
0.25
0.26
0.26
0.26
0.26
0.26
0.25
0.25
0.27
0.26
0.26
0.26
0.26
0.27
0.26
0.26
0.26
0.25
0.25
0.25
0.25
0.25
0.25
0.25
0.25
0.28
0.28
0.28
0.30
0.32
0.32
0.32
0.33
0.33
0.33
0.32
0.34
0.33
0.33
0.32
0.32
0.31
0.31
0.31
0.30
0.29
0.28
0.28
0.28
0.27
0.27
0.27
0.28
0.28
0.30
0.31
0.31
0.31
0.30
0.29
0.29
0.29
0.29
0.29
0.28
0.27
0.29
0.30
0.29
0.28
0.29
0.28
0.28
0.28
0.27
0.27
0.27
0.27
0.27
0.27
0.27
0.27
0.28
0.28
0.28
0.29
0.28
0.28
0.27
0.27
0.27
0.27
0.28
0.28
0.28
0.28
0.28
0.29
0.29
0.30
0.30
0.31
0.31
0.31
0.32
0.33
0.33
0.31
0.34
0.33
0.33
0.33
0.33
0.33
0.34
0.33
0.33
0.32
0.31
0.31
0.31
0.31
0.31
0.30
0.30
0.30
0.29
0.29
0.29
0.28
0.28
0.27
0.28
0.28
0.27
0.27
0.26
0.26
0.26
0.25
0.25
0.25
0.25
0.25
0.25
0.25
0.26
0.26
0.26
0.26
0.26
0.25
0.26
0.25
0.25
0.25
0.26
0.25
0.25
0.25
0.25
0.26
0.25
0.25
0.25
0.25
0.25
0.25
0.24
0.24
0.24
0.23
0.24
0.25
0.25
0.25
0.24
0.24
0.24
0.24
0.25
0.26
0.26
0.25
0.25
0.25
0.25
0.24
0.24
0.25
0.25
0.25
0.25
0.25
0.25
0.25
0.25
0.24
0.25
0.25
0.26
0.26
0.27
0.27
0.26
0.26
0.26
0.27
0.27
0.27
0.26
0.26
0.26
0.25
0.25
0.25
0.25
0.24
0.25
0.24
0.25
0.24
0.24
0.23
0.23
0.23
0.23
0.23
0.23
0.23
0.23
0.25
0.26
0.25
0.25
0.26
0.25
0.25
0.26
0.26
0.26
0.26
0.25
0.25
0.25
0.25
0.24
0.24
0.26
0.26
0.26
0.25
0.25
0.25
0.25
0.25
0.25
0.26
0.26
0.27
0.27
0.26
0.27
0.26
0.26
0.26
0.27
0.29
0.28
0.28
0.28
0.28
0.27
0.27
0.27
0.27
0.28
0.28
0.28
0.28
0.27
0.26
0.26
0.26
0.25
0.26
0.25
0.26
0.25
0.25
0.24
0.25
0.26
0.25
0.25
0.24
0.24
0.24
0.24
0.23
0.24
0.23
0.23
0.24
0.24
0.23
0.25
0.25
0.25
0.25
0.24
0.24
0.25
0.24
0.23
0.23
0.24
0.24
0.25
0.25
0.27
0.26
0.25
0.27
0.27
0.27
0.27
0.26
0.26
0.26
0.26
0.26
0.26
0.26
0.26
0.26
0.26
0.26
0.26
0.29
0.33
0.38
0.39
0.38
0.38
0.42
0.44
0.44
0.44
0.45
0.47
0.48
0.53
0.53
0.53
0.58
0.63
0.62
0.61
0.68
0.69
0.68
0.76
0.85
0.84
0.84
0.84
0.82
0.83
0.82
0.80
0.79
0.79
0.79
0.82
0.82
0.91
0.97
1.00
1.01
1.11
1.17
1.18
1.21
1.18
1.17
1.15
1.17
1.30
1.37
1.36
1.38
1.34
1.32
1.29
1.25
1.21
1.19
1.18
1.21
1.23
1.29
1.31
1.33
1.32
1.35
1.40
1.37
1.37
1.49
1.52
1.49
1.47
1.43
1.42
1.40
1.36
1.32
1.38
1.40
1.42
1.38
1.36
1.32
1.37
1.35
1.39
1.35
1.34
1.34
1.39
1.54
1.53
1.54
1.53
1.52
1.53
1.52
1.55
1.52
1.51
1.58
1.75
1.80
1.85
1.84
1.81
1.74
1.71
1.75
1.75
1.71
1.65
1.67
1.86
1.98
2.01
2.12
2.16
2.11
2.10
2.07
2.01
1.98
1.93
1.95
2.09
2.07
2.02
2.02
2.04
2.11
2.08
2.18
2.31
2.26
2.37
2.39
2.34
2.26
2.17
2.10
2.05
1.98
1.93
1.88
1.83
1.78
1.73
1.68
1.64
1.59
1.56
1.63
1.65
1.69
1.68
1.65
1.62
1.56
1.51
1.45
1.40
1.35
1.34
1.30
1.27
1.26
1.23
1.19
1.15
1.10
1.07
1.03
1.02
0.99
0.97
0.94
0.92
0.91
0.88
0.86
0.83
0.80
0.77
0.75
0.73
0.71
0.69
0.67
0.67
0.65
0.63
0.62
0.61
0.58
0.56
0.55
0.55
0.54
0.53
0.52
0.51
0.49
0.48
0.48
0.49
0.49
0.49
0.48
0.47
0.46
0.45
0.44
0.44
0.45
0.44
0.44
0.43
0.42
0.42
0.43
0.43
0.42
0.42
0.41
0.40
0.39
0.39
0.39
0.39
0.40
0.41
0.41
0.41
0.41
0.41
0.41
0.41
0.40
0.40
0.40
0.40
0.40
0.40
0.39
0.40
0.40
0.41
0.43
0.43
0.43
0.43
0.43
0.45
0.45
0.45
0.44
0.45
0.44
0.43
0.42
0.41
0.40
0.40
0.39
0.40
0.40
0.40
0.38
0.40
0.40
0.39
0.38
0.38
0.37
0.37
0.37
0.36
0.35
0.34
0.33
0.33
0.33
0.33
0.33
0.31
0.31
0.31
0.31
0.29
0.29
0.30
0.30
0.29
0.29
0.29
0.29
0.29
0.28
0.28
0.28
0.27
0.28
0.28
0.30
0.31
0.32
0.33
0.34
0.34
0.35
0.36
0.37
0.37
0.36
0.37
0.38
0.38
0.38
0.38
0.39
0.39
0.38
0.39
0.39
0.38
0.37
0.36
0.36
0.35
0.34
0.33
0.33
0.33
0.32
0.32
0.31
0.33
0.34
0.34
0.34
0.33
0.33
0.32
0.32
0.31
0.31
0.30
0.30
0.29
0.29
0.29
0.29
0.28
0.29
0.28
0.28
0.27
0.27
0.26
0.26
0.25
0.27
0.27
0.27
0.28
0.27
0.28
0.27
0.27
0.26
0.26
0.26
0.25
0.25
0.25
0.25
0.24
0.24
0.24
0.26
0.25
0.26
0.28
0.29
0.29
0.29
0.30
0.30
0.29
0.29
0.28
0.29
0.28
0.28
0.28
0.29
0.28
0.28
0.28
0.28
0.27
0.27
0.27
0.27
0.27
0.27
0.27
0.27
0.26
0.27
0.26
0.26
0.26
0.26
0.27
0.27
0.27
0.27
0.27
0.26
0.26
0.26
0.26
0.25
0.25
0.25
0.24
0.24
0.24
0.24
0.25
0.25
0.24
0.24
0.24
0.24
0.24
0.24
0.23
0.23
0.23
0.22
0.22
0.23
0.23
0.24
0.24
0.24
0.23
0.23
0.23
0.25
0.25
0.26
0.26
0.26
0.26
0.25
0.25
0.26
0.25
0.25
0.25
0.25
0.25
0.24
0.24
0.25
0.24
0.24
0.24
0.25
0.26
0.26
0.27
0.27
0.27
0.27
0.28
0.28
0.28
0.27
0.27
0.27
0.28
0.28
0.28
0.27
0.27
0.28
0.27
0.27
0.27
0.26
0.27
0.25
0.27
0.26
0.26
0.27
0.26
0.27
0.27
0.28
0.29
0.28
0.28
0.28
0.27
0.28
0.28
0.27
0.27
0.28
0.27
0.27
0.28
0.27
0.27
0.27
0.27
0.26
0.26
0.26
0.25
0.25
0.25
0.25
0.24
0.24
0.24
0.24
0.24
0.24
0.23
0.23
0.24
0.23
0.23
0.23
0.23
0.22
0.23
0.23
0.22
0.22
0.22
0.22
0.22
0.22
0.22
0.22
0.22
0.23
0.22
0.23
0.22
0.22
0.23
0.23
0.22
0.23
0.22
0.22
0.22
0.22
0.22
0.22
0.23
0.23
0.22
0.22
0.24
0.24
0.24
0.23
0.23
0.23
0.23
0.23
0.23
0.23
0.23
0.22
0.22
0.22
0.22
0.22
0.22
0.23
0.23
0.23
0.23
0.23
0.23
0.23
0.23
0.23
0.23
0.23
0.23
0.22
0.22
0.22
0.22
0.22
0.23
0.23
0.22
0.22
0.22
0.23
0.23
0.23
0.23
0.24
0.26
0.27
0.27
0.27
0.27
0.27
0.28
0.28
0.27
0.27
0.27
0.27
0.27
0.26
0.26
0.27
0.27
0.27
0.26
0.26
0.27
0.26
0.27
0.27
0.28
0.27
0.27
0.27
0.27
0.27
0.27
0.28
0.29
0.31
0.40
0.48
0.53
0.56
0.61
0.61
0.61
0.60
0.61
0.60
0.63
0.71
0.85
0.89
0.92
0.95
1.01
1.08
1.10
1.07
1.06
1.04
1.00
1.00
1.08
1.18
1.19
1.18
1.17
1.15
1.19
1.19
1.18
1.22
1.35
1.34
1.33
1.28
1.25
1.26
1.25
1.25
1.24
1.21
1.18
1.19
1.19
1.20
1.19
1.17
1.16
1.14
1.19
1.18
1.15
1.11
1.10
1.09
1.07
1.04
1.07
1.07
1.05
1.04
1.00
1.00
0.99
1.05
1.09
1.09
1.10
1.09
1.16
1.25
1.24
1.21
1.19
1.15
1.16
1.20
1.22
1.19
1.19
1.15
1.14
1.12
1.12
1.10
1.12
1.16
1.13
1.11
1.09
1.08
1.08
1.24
1.51
1.56
1.69
1.73
1.69
1.66
1.61
1.55
1.51
1.45
1.46
1.47
1.45
1.42
1.43
1.43
1.45
1.48
1.47
1.47
1.46
1.49
1.45
1.42
1.39
1.34
1.29
1.29
1.26
1.25
1.36
1.39
1.39
1.43
1.41
1.36
1.31
1.27
1.23
1.26
1.34
1.34
1.36
1.39
1.36
1.32
1.28
1.23
1.18
1.14
1.10
1.07
1.03
1.00
0.96
0.93
0.90
0.87
0.84
0.81
0.78
0.77
0.76
0.74
0.73
0.71
0.70
0.67
0.66
0.65
0.63
0.61
0.59
0.57
0.58
0.63
0.62
0.66
0.67
0.67
0.65
0.64
0.62
0.61
0.59
0.57
0.56
0.54
0.53
0.51
0.50
0.49
0.48
0.48
0.46
0.45
0.45
0.44
0.43
0.43
0.42
0.42
0.41
0.39
0.38
0.38
0.37
0.37
0.38
0.39
0.39
0.38
0.41
0.43
0.43
0.43
0.43
0.44
0.43
0.43
0.43
0.43
0.43
0.42
0.43
0.45
0.46
0.46
0.46
0.46
0.47
0.47
0.47
0.48
0.48
0.48
0.47
0.46
0.46
0.45
0.45
0.45
0.44
0.45
0.45
0.43
0.43
0.42
0.42
0.42
0.42
0.41
0.42
0.41
0.40
0.42
0.43
0.43
0.43
0.43
0.43
0.43
0.43
0.42
0.41
0.41
0.40
0.39
0.39
0.38
0.37
0.39
0.40
0.42
0.41
0.41
0.41
0.41
0.40
0.39
0.39
0.40
0.40
0.39
0.40
0.40
0.40
0.38
0.39
0.39
0.38
0.36
0.36
0.35
0.35
0.34
0.33
0.35
0.34
0.34
0.33
0.33
0.32
0.32
0.32
0.32
0.31
0.32
0.31
0.31
0.30
0.29
0.29
0.28
0.28
0.28
0.28
0.29
0.28
0.28
0.27
0.27
0.26
0.25
0.25
0.24
0.24
0.24
0.24
0.23
0.22
0.24
0.23
0.23
0.23
0.23
0.22
0.23
0.24
0.25
0.25
0.24
0.24
0.24
0.24
0.24
0.23
0.24
0.25
0.25
0.24
0.24
0.24
0.24
0.24
0.24
0.24
0.25
0.25
0.27
0.26
0.28
0.27
0.28
0.29
0.29
0.29
0.30
0.30
0.30
0.30
0.29
0.29
0.28
0.28
0.29
0.29
0.29
0.28
0.27
0.27
0.27
0.26
0.26
0.25
0.25
0.25
0.25
0.24
0.24
0.24
0.25
0.25
0.25
0.24
0.23
0.24
0.24
0.23
0.24
0.24
0.23
0.23
0.22
0.22
0.22
0.22
0.22
0.22
0.22
0.22
0.22
0.22
0.22
0.23
0.23
0.24
0.24
0.25
0.24
0.26
0.26
0.27
0.28
0.28
0.27
0.27
0.26
0.26
0.26
0.25
0.25
0.24
0.25
0.25
0.25
0.25
0.27
0.26
0.27
0.27
0.27
0.27
0.26
0.25
0.26
0.25
0.25
0.24
0.24
0.24
0.24
0.24
0.23
0.23
0.23
0.23
0.23
0.23
0.22
0.23
0.23
0.22
0.23
0.23
0.23
0.23
0.24
0.24
0.23
0.24
0.24
0.23
0.23
0.22
0.22
0.22
0.22
0.22
0.23
0.22
0.22
0.22
0.22
0.22
0.22
0.22
0.22
0.22
0.22
0.22
0.22
0.23
0.23
0.22
0.24
0.25
0.25
0.25
0.25
0.25
0.25
0.24
0.24
0.24
0.24
0.23
0.24
0.25
0.26
0.26
0.26
0.26
0.26
0.26
0.25
0.25
0.25
0.26
0.25
0.25
0.25
0.26
0.27
0.28
0.27
0.27
0.27
0.26
0.25
0.25
0.25
0.25
0.25
0.26
0.26
0.26
0.26
0.26
0.26
0.26
0.27
0.26
0.26
0.26
0.26
0.26
0.25
0.25
0.25
0.27
0.28
0.28
0.27
0.27
0.27
0.27
0.28
0.27
0.27
0.28
0.28
0.27
0.27
0.27
0.27
0.27
0.28
0.28
0.27
0.27
0.27
0.27
0.27
0.26
0.27
0.27
0.27
0.27
0.26
0.26
0.26
0.25
0.25
0.24
0.25
0.25
0.27
0.29
0.29
0.28
0.28
0.28
0.28
0.28
0.28
0.28
0.29
0.28
0.27
0.27
0.27
0.26
0.26
0.25
0.25
0.25
0.25
0.24
0.24
0.25
0.26
0.25
0.25
0.27
0.28
0.28
0.28
0.31
0.38
0.42
0.41
0.43
0.44
0.44
0.45
0.44
0.44
0.43
0.42
0.43
0.42
0.42
0.40
0.39
0.39
0.40
0.42
0.41
0.41
0.39
0.40
0.40
0.39
0.39
0.46
0.55
0.59
0.61
0.65
0.66
0.68
0.74
0.78
0.85
0.90
0.94
0.95
1.03
1.09
1.10
1.10
1.11
1.07
1.03
1.02
1.03
1.07
1.07
1.06
1.02
1.02
1.03
1.02
1.04
1.02
1.02
1.02
1.01
1.04
1.05
1.07
1.06
1.05
1.09
1.28
1.29
1.26
1.28
1.39
1.37
1.45
1.42
1.41
1.45
1.44
1.46
1.43
1.44
1.39
1.35
1.35
1.46
1.66
1.70
1.68
1.71
1.70
1.81
1.81
1.85
1.85
1.79
1.79
1.77
1.73
1.67
1.65
1.61
1.62
1.69
1.65
1.67
1.66
1.77
1.79
1.80
1.91
1.96
1.96
2.05
1.99
1.94
1.96
2.05
2.09
2.06
2.05
2.07
2.02
1.98
1.95
1.95
1.90
1.87
1.81
1.80
1.76
1.72
1.68
1.63
1.60
1.57
1.61
1.66
1.66
1.73
1.70
1.67
1.76
1.75
1.81
1.77
1.73
1.69
1.64
1.58
1.52
1.50
1.48
1.46
1.41
1.36
1.31
1.28
1.29
1.30
1.27
1.23
1.24
1.26
1.23
1.23
1.20
1.16
1.14
1.12
1.09
1.06
1.03
1.02
0.98
0.95
0.91
0.88
0.87
0.84
0.82
0.81
0.79
0.77
0.74
0.71
0.69
0.67
0.65
0.64
0.63
0.63
0.62
0.61
0.60
0.59
0.57
0.55
0.54
0.54
0.52
0.51
0.51
0.51
0.50
0.50
0.48
0.47
0.47
0.47
0.47
0.47
0.46
0.45
0.44
0.45
0.46
0.46
0.46
0.45
0.45
0.45
0.44
0.44
0.45
0.47
0.47
0.47
0.47
0.47
0.47
0.46
0.46
0.46
0.47
0.47
0.47
0.47
0.47
0.45
0.45
0.44
0.43
0.43
0.43
0.42
0.42
0.42
0.41
0.44
0.44
0.44
0.43
0.44
0.43
0.43
0.41
0.43
0.42
0.42
0.41
0.40
0.40
0.40
0.39
0.38
0.37
0.36
0.36
0.37
0.37
0.37
0.37
0.35
0.35
0.36
0.35
0.34
0.33
0.34
0.35
0.34
0.34
0.35
0.34
0.34
0.33
0.33
0.33
0.32
0.31
0.31
0.30
0.30
0.31
0.33
0.34
0.34
0.34
0.35
0.36
0.37
0.36
0.36
0.37
0.38
0.38
0.38
0.39
0.40
0.40
0.39
0.38
0.38
0.37
0.36
0.36
0.36
0.35
0.34
0.33
0.33
0.33
0.32
0.32
0.32
0.31
0.30
0.30
0.29
0.29
0.28
0.28
0.28
0.28
0.28
0.27
0.27
0.27
0.27
0.27
0.28
0.28
0.27
0.26
0.26
0.26
0.25
0.25
0.24
0.24
0.24
0.24
0.23
0.24
0.25
0.25
0.24
0.24
0.24
0.24
0.23
0.23
0.23
0.23
0.22
0.23
0.24
0.24
0.24
0.25
0.26
0.27
0.27
0.27
0.28
0.29
0.30
0.29
0.30
0.29
0.29
0.29
0.30
0.29
0.30
0.30
0.30
0.30
0.30
0.29
0.28
0.29
0.29
0.29
0.28
0.28
0.29
0.29
0.28
0.28
0.27
0.27
0.26
0.27
0.26
0.26
0.26
0.25
0.25
0.25
0.25
0.26
0.25
0.24
0.25
0.24
0.23
0.23
0.23
0.23
0.23
0.23
0.22
0.22
0.22
0.22
0.23
0.23
0.24
0.26
0.27
0.26
0.26
0.26
0.25
0.26
0.25
0.25
0.25
0.25
0.25
0.24
0.25
0.24
0.24
0.24
0.24
0.24
0.24
0.24
0.24
0.23
0.23
0.23
0.23
0.22
0.23
0.22
0.24
0.25
0.25
0.24
0.24
0.23
0.23
0.23
0.22
0.23
0.22
0.23
0.23
0.23
0.23
0.23
0.22
0.22
0.22
0.23
0.23
0.23
0.24
0.24
0.24
0.24
0.23
0.23
0.23
0.24
0.25
0.24
0.24
0.24
0.23
0.24
0.24
0.24
0.23
0.24
0.24
0.24
0.24
0.24
0.24
0.24
0.24
0.24
0.24
0.25
0.24
0.24
0.24
0.24
0.23
0.23
0.24
0.24
0.23
0.25
0.26
0.26
0.26
0.25
0.25
0.25
0.25
0.25
0.25
0.25
0.25
0.24
0.24
0.24
0.24
0.24
0.24
0.23
0.24
0.24
0.24
0.24
0.24
0.24
0.23
0.23
0.24
0.24
0.24
0.24
0.24
0.24
0.24
0.24
0.24
0.24
0.23
0.23
0.23
0.24
0.24
0.24
0.24
0.26
0.26
0.25
0.25
0.25
0.25
0.24
0.23
0.24
0.23
0.23
0.23
0.23
0.23
0.22
0.22
0.23
0.23
0.24
0.23
0.23
0.23
0.23
0.23
0.23
0.22
0.23
0.23
0.23
0.24
0.25
0.25
0.26
0.25
0.27
0.27
0.28
0.28
0.29
0.34
0.41
0.41
0.43
0.48
0.50
0.51
0.50
0.50
0.56
0.62
0.63
0.63
0.63
0.62
0.68
0.81
0.87
0.93
0.93
0.94
0.94
0.95
0.98
0.94
0.93
1.00
1.07
1.07
1.05
1.03
1.02
1.01
1.10
1.16
1.24
1.44
1.61
1.65
1.64
1.69
1.77
1.84
1.85
1.83
1.76
1.78
1.77
1.72
1.67
1.67
1.65
1.63
1.63
1.65
1.76
1.86
1.81
1.90
1.87
1.84
1.77
1.78
1.74
1.72
1.73
1.71
1.72
1.69
1.85
2.29
2.38
2.41
2.54
2.46
2.38
2.30
2.22
2.17
2.12
2.07
2.02
1.96
1.91
1.89
2.10
2.16
2.09
2.07
2.05
1.99
1.94
1.96
1.90
1.92
1.91
1.94
1.98
2.09
2.06
2.11
2.11
2.12
2.09
2.15
2.08
2.05
2.05
2.36
2.40
2.56
2.65
2.61
2.52
2.48
2.60
2.59
2.62
2.59
2.54
2.54
2.52
2.58
2.54
2.46
2.38
2.29
2.20
2.14
2.08
2.01
1.95
1.97
1.95
1.91
1.85
1.88
1.85
1.83
1.92
1.92
2.01
2.01
1.96
1.89
1.84
1.80
1.78
1.73
1.73
1.71
1.69
1.68
1.65
1.60
1.54
1.49
1.46
1.46
1.43
1.43
1.39
1.35
1.32
1.30
1.26
1.21
1.17
1.12
1.09
1.06
1.04
1.03
0.99
0.96
0.93
0.90
0.87
0.85
0.83
0.81
0.78
0.77
0.76
0.74
0.72
0.70
0.70
0.70
0.68
0.66
0.65
0.64
0.62
0.61
0.61
0.63
0.63
0.62
0.62
0.62
0.63
0.61
0.60
0.59
0.60
0.60
0.59
0.58
0.56
0.56
0.56
0.57
0.57
0.57
0.58
0.58
0.58
0.59
0.58
0.56
0.55
0.55
0.56
0.55
0.55
0.56
0.56
0.55
0.54
0.56
0.56
0.56
0.55
0.55
0.56
0.55
0.55
0.56
0.56
0.55
0.53
0.51
0.52
0.54
0.55
0.56
0.57
0.58
0.57
0.56
0.55
0.55
0.54
0.53
0.55
0.55
0.56
0.56
0.55
0.56
0.56
0.56
0.55
0.54
0.54
0.52
0.51
0.51
0.51
0.51
0.52
0.51
0.51
0.50
0.50
0.50
0.49
0.48
0.47
0.47
0.47
0.47
0.45
0.45
0.45
0.44
0.43
0.42
0.41
0.40
0.39
0.39
0.39
0.38
0.38
0.37
0.37
0.37
0.36
0.37
0.36
0.35
0.36
0.35
0.34
0.33
0.33
0.32
0.32
0.31
0.30
0.30
0.29
0.29
0.29
0.29
0.29
0.30
0.31
0.31
0.31
0.30
0.30
0.30
0.29
0.29
0.28
0.28
0.28
0.29
0.28
0.28
0.28
0.27
0.27
0.27
0.27
0.26
0.27
0.27
0.26
0.26
0.26
0.26
0.27
0.27
0.27
0.27
0.27
0.26
0.26
0.25
0.25
0.24
0.24
0.24
0.23
0.24
0.23
0.23
0.24
0.24
0.25
0.25
0.25
0.24
0.24
0.24
0.25
0.25
0.25
0.24
0.24
0.24
0.23
0.23
0.24
0.25
0.25
0.26
0.25
0.25
0.24
0.24
0.24
0.23
0.23
0.23
0.23
0.23
0.23
0.23
0.22
0.23
0.22
0.22
0.22
0.22
0.22
0.22
0.21
0.21
0.21
0.21
0.21
0.22
0.22
0.22
0.22
0.24
0.25
0.25
0.24
0.24
0.24
0.24
0.24
0.24
0.23
0.23
0.22
0.22
0.22
0.22
0.22
0.22
0.22
0.22
0.22
0.22
0.22
0.22
0.22
0.21
0.21
0.21
0.21
0.21
0.21
0.22
0.22
0.22
0.22
0.22
0.22
0.22
0.22
0.22
0.21
0.21
0.21
0.21
0.21
0.21
0.21
0.21
0.21
0.21
0.21
0.20
0.20
0.20
0.21
0.21
0.21
0.20
0.20
0.20
0.21
0.22
0.21
0.22
0.22
0.22
0.22
0.22
0.22
0.21
0.23
0.23
0.22
0.24
0.24
0.25
0.24
0.24
0.24
0.24
0.25
0.25
0.25
0.24
0.25
0.24
0.24
0.25
0.25
0.25
0.24
0.24
0.24
0.24
0.24
0.23
0.23
0.23
0.23
0.24
0.24
0.24
0.25
0.25
0.26
0.26
0.25
0.27
0.27
0.26
0.25
0.25
0.25
0.24
0.24
0.24
0.23
0.24
0.23
0.23
0.24
0.25
0.25
0.24
0.24
0.24
0.24
0.23
0.23
0.23
0.23
0.22
0.22
0.22
0.22
0.22
0.21
0.21
0.21
0.21
0.21
0.21
0.20
0.20
0.20
0.21
0.21
0.21
0.20
0.20
0.20
0.21
0.21
0.20
0.20
0.21
0.20
0.20
0.20
0.20
0.20
0.20
0.20
0.20
0.20
0.20
0.19
0.19
0.19
0.19
0.19
0.19
0.19
0.19
0.19
0.19
0.20
0.19
0.19
0.20
0.21
0.21
0.20
0.20
0.21
0.21
0.20
0.20
0.20
0.20
0.20
0.20
0.20
0.19
0.19
0.19
0.19
0.19
0.19
0.20
0.20
0.20
0.20
0.20
0.21
0.23
0.27
0.34
0.37
0.36
0.36
0.36
0.42
0.46
0.47
0.52
0.55
0.54
0.55
0.59
0.60
0.63
0.66
0.74
0.80
0.80
0.78
0.79
0.79
0.84
0.82
0.81
0.83
0.81
0.79
0.81
0.89
0.93
0.92
0.93
0.96
1.02
1.01
1.00
1.03
1.04
1.02
0.98
0.97
0.96
0.96
0.93
0.90
0.94
0.98
0.96
0.99
1.02
1.05
1.31
1.44
1.43
1.46
1.45
1.42
1.42
1.43
1.44
1.48
1.43
1.44
1.46
1.49
1.47
1.46
1.43
1.50
1.67
1.78
1.81
1.79
1.73
1.67
1.71
1.74
1.72
1.71
1.65
1.61
1.58
1.53
1.53
1.52
1.62
1.73
1.71
1.73
1.69
1.63
1.71
1.78
1.88
1.96
1.91
1.85
1.80
1.87
2.00
2.00
2.10
2.08
2.13
2.14
2.08
2.00
2.00
1.98
1.94
1.92
1.95
1.94
1.96
1.93
1.94
1.92
1.90
1.95
1.96
1.90
1.84
1.83
1.79
1.79
1.81
1.77
1.86
1.84
1.83
1.81
1.75
1.70
1.65
1.71
1.73
1.75
1.75
1.70
1.65
1.69
1.74
1.77
1.77
1.73
1.68
1.66
1.64
1.59
1.58
1.55
1.51
1.45
1.41
1.38
1.35
1.33
1.36
1.33
1.37
1.37
1.35
1.31
1.27
1.23
1.19
1.22
1.22
1.24
1.21
1.17
1.14
1.09
1.06
1.03
0.99
1.05
1.11
1.12
1.16
1.18
1.16
1.14
1.10
1.07
1.03
0.99
0.96
0.92
0.89
0.87
0.84
0.81
0.78
0.78
0.77
0.75
0.74
0.73
0.70
0.68
0.67
0.68
0.68
0.67
0.66
0.65
0.64
0.63
0.61
0.59
0.58
0.57
0.57
0.56
0.54
0.52
0.51
0.49
0.49
0.50
0.52
0.53
0.53
0.52
0.52
0.52
0.53
0.53
0.53
0.53
0.51
0.51
0.51
0.50
0.49
0.49
0.48
0.48
0.48
0.48
0.46
0.46
0.45
0.45
0.46
0.47
0.46
0.45
0.45
0.44
0.43
0.43
0.41
0.41
0.41
0.40
0.39
0.39
0.39
0.38
0.38
0.38
0.38
0.38
0.37
0.37
0.37
0.36
0.35
0.35
0.36
0.36
0.36
0.35
0.35
0.36
0.35
0.35
0.36
0.35
0.34
0.35
0.36
0.37
0.36
0.36
0.36
0.36
0.35
0.35
0.34
0.34
0.34
0.33
0.33
0.33
0.34
0.34
0.35
0.35
0.36
0.36
0.35
0.35
0.34
0.34
0.34
0.32
0.32
0.31
0.31
0.30
0.30
0.29
0.28
0.29
0.29
0.29
0.28
0.28
0.28
0.27
0.27
0.27
0.26
0.25
0.25
0.25
0.25
0.24
0.24
0.24
0.23
0.23
0.23
0.23
0.23
0.23
0.23
0.22
0.22
0.22
0.22
0.22
0.22
0.22
0.22
0.22
0.24
0.24
0.24
0.25
0.25
0.26
0.26
0.27
0.27
0.28
0.30
0.31
0.32
0.31
0.31
0.30
0.30
0.29
0.29
0.29
0.29
0.29
0.28
0.28
0.28
0.27
0.26
0.27
0.26
0.26
0.26
0.25
0.25
0.24
0.25
0.25
0.25
0.25
0.26
0.27
0.27
0.26
0.26
0.25
0.25
0.25
0.25
0.24
0.24
0.23
0.23
0.23
0.24
0.25
0.25
0.25
0.24
0.24
0.24
0.24
0.24
0.23
0.23
0.23
0.24
0.24
0.24
0.24
0.25
0.26
0.26
0.26
0.25
0.25
0.25
0.25
0.25
0.26
0.27
0.28
0.28
0.27
0.29
0.29
0.29
0.30
0.29
0.29
0.28
0.27
0.27
0.27
0.27
0.27
0.27
0.26
0.27
0.27
0.26
0.25
0.25
0.25
0.25
0.25
0.25
0.24
0.24
0.24
0.23
0.23
0.24
0.24
0.25
0.24
0.23
0.23
0.23
0.24
0.23
0.22
0.22
0.22
0.22
0.22
0.22
0.22
0.22
0.22
0.22
0.22
0.22
0.22
0.23
0.23
0.22
0.22
0.22
0.23
0.23
0.23
0.23
0.23
0.25
0.24
0.25
0.25
0.25
0.25
0.25
0.25
0.25
0.25
0.24
0.25
0.25
0.25
0.26
0.26
0.25
0.26
0.26
0.25
0.25
0.25
0.25
0.25
0.24
0.25
0.24
0.24
0.24
0.24
0.24
0.23
0.23
0.23
0.24
0.23
0.23
0.23
0.23
0.23
0.24
0.24
0.24
0.24
0.24
0.25
0.25
0.24
0.24
0.24
0.24
0.24
0.23
0.22
0.23
0.23
0.23
0.23
0.23
0.23
0.23
0.22
0.22
0.22
0.22
0.23
0.22
0.22
0.22
0.22
0.22
0.22
0.22
0.21
0.22
0.23
0.24
0.24
0.23
0.23
0.24
0.23
0.23
0.22
0.22
0.22
0.22
0.22
0.22
0.22
0.23
0.23
0.23
0.23
0.22
0.22
0.22
0.22
0.22
0.22
0.24
0.24
0.23
0.24
0.24
0.24
0.24
0.23
0.23
0.23
0.23
0.23
0.23
0.23
0.23
0.22
0.22
0.22
0.23
0.24
0.25
0.25
0.25
0.25
0.25
0.25
0.29
0.36
0.40
0.38
0.40
0.40
0.49
0.53
0.54
0.54
0.57
0.58
0.58
0.64
0.67
0.68
0.67
0.67
0.77
0.90
0.99
0.97
0.99
0.97
0.96
1.04
1.34
1.69
1.76
1.81
1.88
1.93
2.05
2.23
2.33
2.38
2.45
2.46
2.47
2.40
2.31
2.32
2.41
2.42
2.44
2.43
2.36
2.41
2.40
2.33
2.28
2.26
2.19
2.13
2.07
2.03
2.04
1.98
1.92
1.88
1.84
1.84
1.80
1.80
1.85
1.87
1.83
1.78
1.76
1.70
1.65
1.61
1.58
1.58
1.57
1.54
1.49
1.57
1.70
1.68
1.68
1.64
1.61
1.64
1.88
1.93
2.01
2.02
2.04
2.02
1.96
1.94
1.88
1.82
1.76
1.71
1.72
1.78
1.74
1.73
1.70
1.67
1.65
1.59
1.63
1.61
1.57
1.54
1.48
1.43
1.40
1.40
1.36
1.33
1.32
1.29
1.26
1.26
1.22
1.21
1.28
1.28
1.26
1.25
1.23
1.27
1.24
1.25
1.24
1.32
1.36
1.34
1.29
1.25
1.22
1.19
1.16
1.12
1.09
1.07
1.02
0.99
1.00
1.06
1.08
1.09
1.09
1.10
1.06
1.03
1.00
1.00
0.97
0.94
0.93
0.98
0.97
0.94
0.90
0.88
0.86
0.85
0.83
0.80
0.77
0.75
0.72
0.70
0.67
0.66
0.65
0.64
0.64
0.63
0.62
0.60
0.58
0.57
0.55
0.54
0.52
0.51
0.50
0.48
0.51
0.52
0.52
0.50
0.50
0.50
0.48
0.47
0.46
0.45
0.44
0.43
0.42
0.41
0.41
0.40
0.39
0.38
0.37
0.36
0.36
0.35
0.35
0.35
0.34
0.33
0.32
0.32
0.33
0.35
0.35
0.35
0.34
0.33
0.34
0.35
0.36
0.35
0.34
0.34
0.35
0.35
0.35
0.36
0.37
0.37
0.36
0.37
0.39
0.39
0.40
0.41
0.40
0.39
0.38
0.38
0.38
0.39
0.39
0.38
0.37
0.37
0.38
0.38
0.37
0.36
0.36
0.35
0.35
0.35
0.34
0.33
0.32
0.32
0.32
0.33
0.31
0.31
0.31
0.32
0.32
0.31
0.31
0.30
0.30
0.30
0.30
0.30
0.29
0.28
0.28
0.28
0.29
0.28
0.30
0.29
0.29
0.30
0.29
0.30
0.30
0.31
0.31
0.31
0.31
0.31
0.32
0.32
0.32
0.31
0.31
0.31
0.30
0.30
0.30
0.30
0.30
0.29
0.29
0.29
0.28
0.28
0.29
0.30
0.31
0.30
0.29
0.29
0.28
0.28
0.27
0.26
0.26
0.26
0.26
0.26
0.25
0.25
0.24
0.25
0.24
0.24
0.24
0.23
0.24
0.24
0.23
0.23
0.23
0.23
0.23
0.22
0.22
0.22
0.22
0.21
0.22
0.21
0.21
0.22
0.22
0.22
0.22
0.22
0.24
0.24
0.24
0.25
0.24
0.25
0.25
0.26
0.26
0.26
0.27
0.26
0.26
0.26
0.26
0.26
0.25
0.26
0.26
0.27
0.26
