0.15
0.14
0.14
0.14
0.15
0.15
0.15
0.15
0.14
0.14
0.14
0.15
0.16
0.18
0.20
0.20
0.20
0.21
0.21
0.21
0.21
0.20
0.21
0.21
0.21
0.20
0.20
0.21
0.21
0.21
0.21
0.21
0.22
0.22
0.24
0.24
0.24
0.25
0.26
0.27
0.27
0.27
0.26
0.26
0.26
0.26
0.25
0.25
0.24
0.24
0.26
0.26
0.27
0.27
0.26
0.26
0.27
0.26
0.26
0.26
0.26
0.26
0.25
0.25
0.25
0.24
0.24
0.24
0.24
0.24
0.24
0.23
0.23
0.23
0.24
0.23
0.23
0.24
0.24
0.23
0.23
0.24
0.24
0.25
0.25
0.25
0.25
0.25
0.25
0.25
0.25
0.25
0.25
0.25
0.25
0.25
0.24
0.24
0.24
0.25
0.25
0.25
0.26
0.26
0.26
0.26
0.25
0.25
0.25
0.25
0.25
0.24
0.25
0.25
0.24
0.24
0.24
0.24
0.24
0.23
0.23
0.23
0.23
0.24
0.23
0.24
0.24
0.24
0.23
0.23
0.23
0.23
0.23
0.23
0.22
0.22
0.23
0.23
0.23
0.23
0.23
0.24
0.23
0.23
0.23
0.23
0.22
0.22
0.22
0.22
0.22
0.22
0.22
0.22
0.22
0.22
0.22
0.22
0.22
0.22
0.22
0.23
0.24
0.25
0.25
0.26
0.26
0.26
0.26
0.26
0.26
0.25
0.26
0.26
0.26
0.26
0.25
0.26
0.26
0.26
0.26
0.25
0.26
0.26
0.26
0.26
0.26
0.26
0.26
0.27
0.26
0.27
0.28
0.28
0.28
0.30
0.29
0.28
0.28
0.28
0.28
0.28
0.28
0.28
0.27
0.27
0.26
0.26
0.27
0.26
0.26
0.25
0.27
0.27
0.26
0.26
0.26
0.26
0.25
0.25
0.26
0.27
0.26
0.26
0.26
0.25
0.25
0.25
0.24
0.25
0.25
0.25
0.24
0.24
0.24
0.23
0.24
0.25
0.26
0.26
0.26
0.26
0.26
0.26
0.27
0.26
0.27
0.27
0.28
0.27
0.27
0.28
0.28
0.27
0.28
0.30
0.30
0.30
0.30
0.30
0.29
0.29
0.29
0.29
0.29
0.30
0.30
0.29
0.30
0.31
0.30
0.30
0.30
0.29
0.30
0.30
0.29
0.30
0.29
0.29
0.29
0.29
0.28
0.28
0.27
0.28
0.27
0.26
0.26
0.26
0.26
0.26
0.26
0.26
0.27
0.29
0.32
0.33
0.39
0.47
0.61
0.78
0.96
1.15
1.49
2.14
2.59
2.67
2.64
2.68
2.80
2.84
2.88
2.81
2.75
2.66
2.60
2.66
2.66
2.67
2.61
2.56
2.81
3.09
3.10
3.18
3.36
3.32
3.25
3.19
3.37
3.74
3.85
4.07
4.06
4.21
4.20
4.57
4.67
4.80
4.80
4.70
4.58
4.51
4.36
4.20
4.08
4.08
4.27
4.33
4.33
4.27
4.17
4.06
4.10
4.04
3.99
3.87
3.78
3.79
3.75
3.89
3.91
3.94
3.82
3.70
3.64
3.55
3.42
3.33
3.22
3.12
3.04
2.96
2.98
2.92
2.86
2.78
2.73
2.70
2.65
2.56
2.50
2.47
2.42
2.44
2.36
2.31
2.32
2.30
2.30
2.22
2.15
2.11
2.05
1.97
1.92
1.86
1.85
1.81
1.75
1.69
1.65
1.59
1.53
1.49
1.47
1.42
1.37
1.34
1.30
1.28
1.23
1.19
1.15
1.13
1.11
1.08
1.07
1.06
1.05
1.03
1.02
1.00
0.99
0.97
0.96
0.94
0.94
0.91
0.91
0.91
0.91
0.91
0.91
0.91
0.91
0.91
0.92
0.90
0.89
0.90
0.91
0.92
0.93
0.92
0.94
0.95
0.95
0.96
0.96
0.98
0.99
1.00
1.01
1.00
1.01
1.03
1.02
1.05
1.06
1.06
1.08
1.07
1.08
1.09
1.10
1.10
1.10
1.11
1.13
1.12
1.11
1.14
1.16
1.18
1.22
1.21
1.21
1.22
1.23
1.24
1.23
1.24
1.24
1.24
1.25
1.24
1.23
1.23
1.24
1.25
1.24
1.23
1.23
1.22
1.21
1.20
1.20
1.22
1.21
1.19
1.20
1.18
1.16
1.14
1.15
1.15
1.14
1.12
1.10
1.10
1.10
1.09
1.07
1.07
1.07
1.06
1.05
1.04
1.05
1.03
1.01
1.01
0.98
0.96
0.94
0.93
0.93
0.93
0.90
0.90
0.89
0.88
0.87
0.85
0.85
0.84
0.82
0.80
0.78
0.77
0.76
0.73
0.74
0.73
0.71
0.70
0.70
0.69
0.68
0.65
0.64
0.64
0.63
0.62
0.62
0.60
0.59
0.60
0.59
0.59
0.58
0.57
0.55
0.55
0.55
0.54
0.53
0.51
0.50
0.50
0.49
0.47
0.47
0.46
0.45
0.44
0.44
0.43
0.43
0.42
0.41
0.41
0.42
0.41
0.42
0.41
0.40
0.39
0.40
0.40
0.40
0.39
0.39
0.39
0.37
0.36
0.36
0.35
0.35
0.35
0.34
0.33
0.33
0.33
0.33
0.33
0.32
0.32
0.31
0.32
0.32
0.31
0.31
0.32
0.31
0.31
0.30
0.29
0.29
0.29
0.28
0.27
0.27
0.28
0.28
0.27
0.27
0.27
0.27
0.27
0.27
0.27
0.27
0.26
0.27
0.26
0.26
0.26
0.26
0.26
0.26
0.26
0.25
0.25
0.25
0.25
0.25
0.25
0.24
0.25
0.26
0.27
0.28
0.27
0.29
0.29
0.29
0.29
0.29
0.28
0.28
0.29
0.29
0.29
0.29
0.28
0.28
0.28
0.28
0.28
0.27
0.27
0.28
0.28
0.28
0.28
0.29
0.28
0.30
0.30
0.29
0.29
0.29
0.29
0.28
0.27
0.27
0.27
0.27
0.27
0.27
0.26
0.26
0.26
0.26
0.26
0.26
0.26
0.27
0.26
0.27
0.26
0.26
0.26
0.26
0.26
0.25
0.25
0.25
0.25
0.25
0.25
0.24
0.24
0.25
0.25
0.25
0.24
0.24
0.24
0.25
0.23
0.25
0.25
0.25
0.25
0.26
0.25
0.25
0.25
0.26
0.26
0.26
0.26
0.26
0.26
0.27
0.27
0.27
0.26
0.26
0.27
0.27
0.27
0.27
0.29
0.28
0.28
0.27
0.27
0.26
0.26
0.26
0.26
0.25
0.26
0.25
0.25
0.25
0.25
0.24
0.24
0.24
0.25
0.25
0.25
0.25
0.25
0.24
0.24
0.24
0.24
0.24
0.24
0.24
0.24
0.24
0.23
0.24
0.24
0.24
0.31
0.37
0.39
0.40
0.43
0.43
0.45
0.51
0.56
0.56
0.60
0.60
0.80
1.28
1.91
2.38
2.57
2.57
2.61
2.58
2.56
2.64
2.81
3.08
3.02
3.03
3.32
3.40
3.51
3.48
3.52
3.64
3.80
3.74
3.68
3.62
3.62
3.54
3.48
3.39
3.28
3.32
3.92
4.08
4.07
4.09
4.04
3.89
4.04
4.00
3.86
3.78
3.83
3.77
3.74
3.78
3.71
3.61
3.48
3.46
3.44
3.54
3.55
3.47
3.39
3.32
3.28
3.28
3.51
3.45
3.44
3.37
3.32
3.26
3.48
3.58
3.63
3.68
3.56
3.52
3.70
3.68
3.81
3.86
3.78
4.04
4.02
4.20
4.07
3.92
3.84
3.80
3.90
3.88
3.89
3.79
3.65
3.51
3.45
3.34
3.25
3.13
3.02
2.93
2.84
2.76
2.67
2.58
2.49
2.42
2.39
2.32
2.24
2.17
2.09
2.03
1.96
1.91
1.85
1.80
1.75
1.71
1.67
1.63
1.58
1.52
1.48
1.42
1.38
1.33
1.30
1.26
1.22
1.17
1.14
1.10
1.07
1.03
1.00
0.96
0.93
0.90
0.88
0.86
0.83
0.81
0.79
0.78
0.76
0.75
0.74
0.75
0.72
0.74
0.73
0.72
0.72
0.72
0.72
0.72
0.71
0.71
0.72
0.70
0.69
0.68
0.69
0.70
0.70
0.68
0.68
0.69
0.69
0.68
0.67
0.67
0.67
0.67
0.67
0.67
0.68
0.67
0.66
0.66
0.65
0.64
0.63
0.64
0.65
0.65
0.65
0.66
0.66
0.66
0.65
0.64
0.63
0.62
0.61
0.61
0.60
0.60
0.59
0.58
0.57
0.56
0.55
0.56
0.57
0.56
0.56
0.55
0.55
0.54
0.53
0.51
0.51
0.52
0.53
0.54
0.55
0.55
0.54
0.53
0.52
0.53
0.53
0.52
0.51
0.50
0.50
0.51
0.49
0.47
0.47
0.46
0.46
0.45
0.44
0.44
0.43
0.43
0.42
0.42
0.41
0.40
0.40
0.40
0.39
0.38
0.37
0.36
0.37
0.36
0.36
0.35
0.35
0.34
0.35
0.34
0.34
0.34
0.33
0.33
0.33
0.33
0.32
0.33
0.34
0.32
0.32
0.32
0.31
0.31
0.30
0.30
0.31
0.30
0.30
0.30
0.30
0.30
0.31
0.31
0.31
0.30
0.30
0.29
0.29
0.29
0.29
0.28
0.30
0.30
0.30
0.30
0.29
0.29
0.29
0.29
0.29
0.29
0.28
0.29
0.27
0.28
0.30
0.30
0.30
0.31
0.31
0.30
0.30
0.29
0.28
0.29
0.29
0.28
0.27
0.27
0.27
0.26
0.29
0.29
0.28
0.28
0.27
0.28
0.28
0.28
0.28
0.27
0.28
0.28
0.28
0.29
0.29
0.28
0.28
0.28
0.28
0.27
0.27
0.27
0.26
0.26
0.26
0.25
0.26
0.26
0.25
0.25
0.25
0.25
0.25
0.26
0.26
0.26
0.26
0.25
0.25
0.26
0.25
0.25
0.25
0.25
0.25
0.25
0.25
0.25
0.25
0.24
0.26
0.26
0.25
0.25
0.24
0.25
0.24
0.24
0.24
0.24
0.24
0.24
0.23
0.23
0.23
0.23
0.23
0.23
0.23
0.25
0.24
0.24
0.24
0.24
0.24
0.24
0.24
0.23
0.23
0.23
0.23
0.23
0.23
0.23
0.23
0.23
0.23
0.22
0.22
0.22
0.23
0.23
0.22
0.23
0.23
0.23
0.23
0.23
0.23
0.23
0.22
0.23
0.23
0.23
0.23
0.22
0.24
0.32
0.53
0.72
0.82
0.87
1.11
1.67
2.19
2.38
2.48
2.51
2.57
2.59
2.72
2.87
2.93
2.89
2.80
2.73
2.79
2.84
2.88
2.96
3.04
2.99
3.02
3.08
3.09
3.44
3.57
3.62
3.78
3.81
3.75
3.84
3.95
4.26
4.23
4.25
4.22
4.15
4.13
4.07
4.36
4.30
4.48
4.52
4.41
4.28
4.22
4.52
4.70
4.63
4.56
4.47
4.35
4.32
4.41
4.46
4.31
4.15
4.01
3.89
3.75
3.72
3.70
3.69
3.66
3.62
3.70
4.05
4.24
4.54
4.46
4.36
4.22
4.09
3.96
3.92
3.82
3.84
3.86
3.91
3.87
3.75
3.71
3.68
3.54
3.49
3.37
3.28
3.23
3.24
3.13
3.03
2.91
2.81
2.76
2.80
2.73
2.76
2.65
2.64
2.62
2.60
2.59
2.53
2.43
2.34
2.27
2.22
2.16
2.09
2.01
1.94
1.87
1.81
1.74
1.68
1.61
1.56
1.50
1.45
1.41
1.38
1.33
1.30
1.25
1.22
1.18
1.14
1.11
1.09
1.09
1.05
1.02
0.98
0.95
0.93
0.90
0.87
0.84
0.81
0.79
0.77
0.75
0.72
0.71
0.69
0.67
0.65
0.64
0.63
0.60
0.59
0.58
0.57
0.56
0.55
0.53
0.53
0.51
0.50
0.50
0.50
0.48
0.47
0.47
0.47
0.45
0.45
0.44
0.44
0.45
0.45
0.46
0.45
0.44
0.45
0.48
0.47
0.47
0.46
0.47
0.48
0.49
0.49
0.49
0.50
0.50
0.51
0.53
0.51
0.51
0.51
0.50
0.52
0.53
0.51
0.53
0.54
0.55
0.57
0.56
0.55
0.55
0.55
0.57
0.56
0.55
0.55
0.55
0.54
0.54
0.53
0.54
0.53
0.52
0.53
0.52
0.52
0.52
0.52
0.52
0.51
0.51
0.51
0.52
0.53
0.52
0.52
0.52
0.51
0.51
0.52
0.53
0.53
0.52
0.52
0.52
0.51
0.50
0.50
0.52
0.52
0.50
0.49
0.49
0.48
0.47
0.47
0.46
0.47
0.46
0.45
0.43
0.43
0.44
0.44
0.43
0.44
0.43
0.43
0.43
0.42
0.41
0.40
0.39
0.39
0.39
0.39
0.38
0.37
0.36
0.36
0.35
0.34
0.34
0.33
0.33
0.32
0.31
0.32
0.31
0.30
0.31
0.31
0.31
0.31
0.30
0.30
0.30
0.29
0.29
0.31
0.30
0.30
0.30
0.30
0.30
0.30
0.31
0.30
0.30
0.30
0.29
0.29
0.29
0.29
0.29
0.28
0.28
0.28
0.27
0.27
0.27
0.27
0.26
0.26
0.26
0.26
0.26
0.27
0.27
0.27
0.27
0.26
0.28
0.29
0.29
0.29
0.30
0.30
0.31
0.31
0.32
0.32
0.33
0.32
0.31
0.31
0.31
0.31
0.30
0.29
0.29
0.29
0.28
0.28
0.28
0.27
0.27
0.27
0.27
0.27
0.26
0.26
0.26
0.26
0.26
0.26
0.26
0.26
0.25
0.25
0.25
0.25
0.25
0.24
0.24
0.24
0.24
0.23
0.23
0.23
0.24
0.23
0.23
0.23
0.22
0.22
0.22
0.22
0.22
0.22
0.22
0.22
0.21
0.22
0.22
0.22
0.22
0.22
0.22
0.22
0.22
0.23
0.23
0.23
0.23
0.23
0.23
0.23
0.23
0.23
0.23
0.23
0.23
0.23
0.23
0.22
0.22
0.22
0.22
0.22
0.22
0.22
0.22
0.21
0.22
0.22
0.22
0.22
0.22
0.21
0.21
0.21
0.21
0.21
0.21
0.20
0.20
0.21
0.20
0.21
0.20
0.21
0.21
0.21
0.21
0.21
0.22
0.22
0.22
0.21
0.22
0.22
0.22
0.22
0.23
0.23
0.24
0.28
0.32
0.33
0.39
0.40
0.40
0.42
0.54
0.75
0.91
1.01
1.12
1.46
1.84
2.10
2.22
2.18
2.11
2.11
2.24
2.39
2.54
2.50
2.49
2.46
2.49
2.72
2.74
2.69
2.89
2.95
2.95
2.91
3.16
3.37
3.42
3.61
3.70
3.63
3.57
3.66
3.85
3.81
3.75
3.63
3.82
3.75
3.63
3.55
3.63
3.64
3.71
3.70
3.57
3.48
3.47
3.44
3.47
3.38
3.65
3.61
3.77
3.73
3.63
3.60
3.63
3.55
3.64
3.51
3.42
3.30
3.20
3.26
3.62
3.82
4.19
4.23
4.25
4.19
4.03
3.97
4.06
3.99
3.98
3.99
3.90
3.81
3.76
3.82
3.84
3.80
3.77
3.70
3.57
3.48
3.43
3.37
3.32
3.39
3.40
3.45
3.94
4.06
4.38
4.41
4.41
4.41
4.40
4.47
4.31
4.14
4.01
3.92
3.81
3.69
3.57
3.48
3.42
3.31
3.20
3.08
2.98
3.03
3.05
3.04
3.04
3.05
2.97
2.87
2.77
2.67
2.57
2.47
2.38
2.29
2.20
2.12
2.05
1.98
1.90
1.83
1.78
1.72
1.66
1.60
1.54
1.49
1.44
1.39
1.35
1.32
1.28
1.24
1.20
1.17
1.14
1.10
1.07
1.04
1.00
0.97
0.94
0.91
0.89
0.87
0.85
0.83
0.80
0.79
0.79
0.76
0.75
0.73
0.71
0.69
0.67
0.66
0.64
0.62
0.61
0.61
0.60
0.58
0.56
0.55
0.55
0.53
0.52
0.52
0.51
0.50
0.49
0.49
0.48
0.47
0.47
0.47
0.47
0.46
0.45
0.46
0.46
0.45
0.44
0.43
0.42
0.43
0.44
0.45
0.45
0.45
0.45
0.48
0.47
0.47
0.46
0.46
0.46
0.45
0.46
0.46
0.45
0.44
0.44
0.43
0.43
0.42
0.43
0.42
0.42
0.41
0.41
0.41
0.42
0.41
0.42
0.40
0.39
0.41
0.41
0.40
0.39
0.38
0.38
0.38
0.37
0.37
0.36
0.36
0.36
0.35
0.35
0.34
0.33
0.33
0.32
0.32
0.32
0.31
0.31
0.30
0.30
0.30
0.29
0.29
0.29
0.28
0.28
0.28
0.28
0.27
0.27
0.27
0.27
0.27
0.26
0.25
0.25
0.24
0.25
0.24
0.24
0.24
0.24
0.23
0.24
0.23
0.22
0.23
0.22
0.22
0.22
0.22
0.21
0.21
0.22
0.22
0.23
0.23
0.23
0.23
0.23
0.22
0.22
0.22
0.22
0.22
0.22
0.22
0.22
0.22
0.21
0.21
0.21
0.21
0.21
0.21
0.21
0.21
0.21
0.21
0.21
0.21
0.21
0.21
0.21
0.22
0.22
0.23
0.22
0.22
0.22
0.22
0.22
0.23
0.22
0.23
0.22
0.23
0.22
0.22
0.22
0.22
0.22
0.22
0.22
0.22
0.22
0.22
0.22
0.22
0.22
0.22
0.21
0.22
0.21
0.21
0.21
0.20
0.21
0.21
0.21
0.22
0.21
0.21
0.21
0.22
0.22
0.22
0.22
0.22
0.22
0.22
0.22
0.21
0.22
0.22
0.22
0.22
0.22
0.22
0.22
0.23
0.23
0.22
0.23
0.22
0.22
0.22
0.22
0.22
0.22
0.22
0.22
0.22
0.22
0.22
0.21
0.21
0.21
0.21
0.21
0.21
0.21
0.21
0.20
0.21
0.21
0.22
0.23
0.23
0.23
0.24
0.23
0.23
0.23
0.23
0.23
0.23
0.23
0.23
0.23
0.23
0.23
0.24
0.24
0.23
0.23
0.24
0.26
0.26
0.26
0.26
0.25
0.25
0.25
0.25
0.25
0.24
0.24
0.26
0.27
0.26
0.26
0.26
0.25
0.25
0.25
0.25
0.25
0.25
0.24
0.24
0.23
0.24
0.24
0.23
0.23
0.23
0.24
0.23
0.23
0.23
0.22
0.24
0.25
0.25
0.25
0.26
0.26
0.27
0.31
0.31
0.33
0.33
0.33
0.33
0.33
0.34
0.34
0.34
0.35
0.34
0.34
0.35
0.34
0.34
0.33
0.33
0.34
0.33
0.33
0.34
0.35
0.42
0.51
0.56
0.62
0.68
0.68
0.89
1.19
1.39
1.44
1.59
1.85
1.91
2.19
2.60
2.79
2.77
3.02
3.02
3.13
3.33
3.30
3.52
3.54
3.61
3.54
3.49
3.40
3.52
3.69
3.58
3.48
3.85
4.07
4.08
4.43
4.39
4.34
4.34
4.27
4.27
4.55
4.80
4.80
4.80
4.80
4.80
4.80
4.80
4.80
4.80
4.80
4.80
4.77
4.73
4.80
4.80
4.80
4.80
4.80
4.80
4.80
4.80
4.80
4.80
4.78
4.60
4.55
4.64
4.64
4.56
4.47
4.35
4.30
4.23
4.30
4.31
4.40
4.40
4.30
4.14
4.04
3.92
3.78
3.68
3.54
3.44
3.35
3.25
3.15
3.06
3.05
2.96
2.87
2.77
2.70
2.65
2.58
2.49
2.43
2.37
2.30
2.24
2.19
2.15
2.09
2.04
1.98
1.98
1.96
1.89
1.84
1.79
1.73
1.69
1.63
1.57
1.52
1.48
1.43
1.38
1.33
1.29
1.25
1.20
1.17
1.12
1.09
1.05
1.02
0.98
0.96
0.92
0.90
0.87
0.85
0.83
0.80
0.77
0.75
0.72
0.71
0.68
0.67
0.67
0.65
0.63
0.62
0.61
0.62
0.61
0.60
0.59
0.57
0.57
0.56
0.54
0.53
0.53
0.52
0.51
0.51
0.51
0.50
0.49
0.52
0.51
0.52
0.50
0.50
0.49
0.50
0.50
0.50
0.50
0.50
0.49
0.47
0.49
0.49
0.48
0.48
0.47
0.47
0.50
0.49
0.50
0.50
0.51
0.50
0.49
0.48
0.48
0.48
0.47
0.47
0.47
0.48
0.47
0.47
0.46
0.45
0.45
0.45
0.45
0.45
0.44
0.43
0.42
0.43
0.42
0.42
0.42
0.43
0.44
0.44
0.44
0.43
0.43
0.42
0.42
0.41
0.40
0.39
0.39
0.38
0.38
0.37
0.37
0.36
0.36
0.35
0.34
0.35
0.37
0.39
0.39
0.39
0.39
0.39
0.39
0.38
0.38
0.37
0.36
0.36
0.34
0.34
0.33
0.32
0.33
0.32
0.31
0.30
0.30
0.31
0.30
0.30
0.29
0.29
0.29
0.28
0.28
0.28
0.27
0.27
0.27
0.27
0.27
0.26
0.26
0.26
0.25
0.25
0.25
0.24
0.25
0.25
0.24
0.25
0.24
0.25
0.24
0.24
0.25
0.24
0.24
0.24
0.23
0.24
0.24
0.24
0.23
0.23
0.23
0.22
0.22
0.22
0.23
0.22
0.23
0.23
0.23
0.23
0.22
0.22
0.22
0.23
0.23
0.23
0.22
0.22
0.22
0.22
0.24
0.24
0.23
0.23
0.23
0.24
0.23
0.24
0.24
0.24
0.24
0.24
0.24
0.25
0.24
0.24
0.24
0.23
0.24
0.23
0.23
0.24
0.24
0.23
0.23
0.23
0.24
0.23
0.22
0.23
0.22
0.23
0.24
0.24
0.24
0.23
0.24
0.23
0.23
0.23
0.22
0.23
0.23
0.22
0.22
0.24
0.23
0.24
0.23
0.23
0.22
0.22
0.22
0.22
0.22
0.22
0.22
0.22
0.22
0.22
0.22
0.22
0.22
0.22
0.22
0.23
0.23
0.23
0.22
0.22
0.23
0.23
0.23
0.23
0.23
0.23
0.23
0.23
0.23
0.23
0.23
0.23
0.24
0.24
0.24
0.24
0.24
0.24
0.24
0.24
0.24
0.23
0.24
0.24
0.23
0.23
0.24
0.23
0.23
0.23
0.25
0.29
0.32
0.32
0.33
0.35
0.43
0.54
0.58
0.57
0.60
0.76
0.97
1.14
1.30
1.43
1.41
1.52
1.69
2.01
2.11
2.16
2.25
2.19
2.16
2.19
2.16
2.24
2.40
2.38
2.52
2.47
2.50
2.53
2.52
2.61
2.72
2.73
2.82
2.85
2.94
2.90
2.93
2.86
2.95
2.98
2.93
2.89
2.93
2.93
2.95
3.00
2.93
3.06
3.02
2.96
2.99
3.35
3.54
3.60
3.70
3.74
3.65
3.65
3.53
3.63
3.54
3.42
3.29
3.18
3.08
2.99
2.94
3.25
3.65
3.81
4.05
4.11
3.98
3.86
3.73
3.60
3.49
3.39
3.36
3.64
3.64
3.85
3.91
3.81
3.67
3.57
3.44
3.32
3.22
3.11
3.20
3.21
3.35
3.41
3.33
3.23
3.13
3.08
3.05
3.00
2.90
2.80
2.70
2.61
2.53
2.46
2.36
2.28
2.20
2.13
2.06
1.99
1.92
1.86
1.81
1.76
1.72
1.72
1.69
1.63
1.58
1.53
1.48
1.43
1.37
1.34
1.33
1.29
1.25
1.21
1.20
1.17
1.13
1.09
1.06
1.02
0.98
0.95
0.92
0.89
0.87
0.84
0.81
0.79
0.78
0.76
0.75
0.75
0.73
0.71
0.69
0.67
0.67
0.66
0.65
0.65
0.65
0.64
0.63
0.61
0.61
0.60
0.59
0.59
0.59
0.57
0.57
0.56
0.55
0.54
0.54
0.55
0.55
0.55
0.55
0.54
0.53
0.54
0.54
0.53
0.51
0.50
0.48
0.47
0.48
0.48
0.46
0.46
0.46
0.46
0.46
0.46
0.45
0.47
0.45
0.44
0.44
0.43
0.43
0.43
0.43
0.43
0.42
0.41
0.40
0.39
0.39
0.38
0.37
0.37
0.38
0.38
0.37
0.36
0.36
0.37
0.36
0.36
0.36
0.35
0.35
0.34
0.34
0.34
0.33
0.33
0.33
0.33
0.33
0.32
0.33
0.33
0.33
0.34
0.33
0.33
0.32
0.31
0.31
0.31
0.31
0.31
0.32
0.32
0.30
0.31
0.30
0.29
0.29
0.28
0.28
0.27
0.27
0.27
0.26
0.27
0.26
0.26
0.25
0.25
0.26
0.26
0.26
0.25
0.24
0.24
0.25
0.24
0.24
0.23
0.23
0.24
0.24
0.24
0.24
0.23
0.24
0.23
0.24
0.23
0.23
0.24
0.25
0.24
0.24
0.24
0.24
0.24
0.25
0.25
0.24
0.25
0.24
0.24
0.24
0.24
0.23
0.23
0.24
0.24
0.23
0.24
0.24
0.24
0.24
0.24
0.23
0.24
0.24
0.23
0.23
0.24
0.24
0.24
0.25
0.25
0.25
0.24
0.26
0.25
0.26
0.26
0.25
0.27
0.27
0.28
0.27
0.26
0.26
0.26
0.26
0.25
0.25
0.25
0.24
0.25
0.25
0.25
0.25
0.25
0.25
0.26
0.26
0.26
0.25
0.25
0.25
0.24
0.24
0.24
0.24
0.24
0.24
0.24
0.25
0.25
0.25
0.25
0.25
0.26
0.25
0.26
0.26
0.26
0.25
0.25
0.25
0.25
0.25
0.25
0.25
0.25
0.25
0.26
0.26
0.26
0.25
0.25
0.26
0.26
0.25
0.25
0.25
0.25
0.26
0.25
0.25
0.26
0.25
0.26
0.26
0.26
0.25
0.25
0.26
0.26
0.26
0.26
0.25
0.25
0.25
0.24
0.24
0.25
0.24
0.25
0.25
0.26
0.26
0.26
0.25
0.25
0.25
0.25
0.24
0.24
0.24
0.24
0.24
0.24
0.23
0.24
0.23
0.23
0.23
0.23
0.23
0.23
0.22
0.22
0.23
0.22
0.23
0.23
0.23
0.23
0.24
0.24
0.24
0.24
0.23
0.24
0.24
0.24
0.23
0.24
0.24
0.24
0.24
0.24
0.24
0.24
0.23
0.24
0.24
0.26
0.26
0.26
0.28
0.33
0.39
0.39
0.42
0.43
0.57
0.76
0.87
0.93
1.06
1.32
1.73
1.91
1.88
1.86
1.80
1.80
1.76
1.79
1.80
1.81
1.87
1.83
1.98
2.19
2.17
2.29
2.45
2.43
2.39
2.52
2.48
2.63
2.61
2.62
2.83
2.84
3.11
3.30
3.28
3.22
3.41
3.43
3.49
3.51
3.65
3.79
3.85
3.95
3.82
3.72
3.70
3.72
3.59
3.54
3.48
3.47
4.20
4.46
4.80
4.80
4.80
4.80
4.63
4.48
4.33
4.16
4.00
3.90
3.94
3.91
3.83
3.76
4.24
4.30
4.61
4.76
4.68
4.54
4.41
4.32
4.21
4.08
3.97
3.84
3.68
3.61
3.64
3.62
3.71
3.66
3.90
4.19
4.22
4.46
4.48
4.33
4.18
4.08
3.94
3.88
3.78
3.65
3.60
3.56
3.45
3.33
3.23
3.14
3.05
3.01
2.91
2.82
2.71
2.61
2.53
2.46
2.46
2.41
2.38
2.36
2.30
2.23
2.15
2.07
1.99
1.93
1.91
1.87
1.84
1.77
1.75
1.69
1.64
1.59
1.53
1.48
1.44
1.39
1.34
1.30
1.27
1.23
1.19
1.18
1.13
1.10
1.08
1.05
1.02
1.03
0.99
0.96
0.93
0.91
0.89
0.87
0.84
0.81
0.79
0.77
0.74
0.72
0.70
0.69
0.68
0.67
0.66
0.66
0.64
0.63
0.62
0.60
0.60
0.58
0.56
0.55
0.55
0.55
0.54
0.54
0.54
0.54
0.53
0.54
0.52
0.52
0.51
0.50
0.51
0.50
0.48
0.48
0.48
0.48
0.48
0.47
0.47
0.48
0.47
0.47
0.47
0.47
0.47
0.46
0.48
0.48
0.46
0.46
0.50
0.50
0.51
0.50
0.49
0.50
0.49
0.48
0.47
0.46
0.45
0.44
0.43
0.43
0.42
0.43
0.41
0.41
0.40
0.40
0.39
0.39
0.39
0.40
0.38
0.37
0.38
0.38
0.38
0.36
0.36
0.36
0.36
0.35
0.34
0.34
0.35
0.34
0.34
0.34
0.33
0.32
0.32
0.32
0.33
0.33
0.33
0.33
0.33
0.33
0.33
0.33
0.33
0.32
0.31
0.31
0.30
0.30
0.29
0.29
0.30
0.30
0.31
0.31
0.31
0.31
0.31
0.30
0.30
0.30
0.29
0.28
0.29
0.29
0.29
0.28
0.28
0.28
0.27
0.27
0.26
0.26
0.26
0.26
0.25
0.25
0.26
0.25
0.25
0.25
0.25
0.25
0.24
0.24
0.24
0.24
0.24
0.23
0.23
0.24
0.24
0.24
0.25
0.25
0.25
0.25
0.25
0.25
0.25
0.24
0.24
0.24
0.23
0.22
0.23
0.22
0.23
0.23
0.23
0.22
0.23
0.23
0.22
0.22
0.22
0.23
0.22
0.22
0.22
0.22
0.22
0.22
0.22
0.23
0.22
0.22
0.24
0.24
0.24
0.24
0.24
0.24
0.24
0.24
0.24
0.24
0.24
0.24
0.24
0.24
0.23
0.24
0.23
0.23
0.23
0.23
0.23
0.23
0.23
0.23
0.23
0.23
0.22
0.22
0.22
0.22
0.22
0.22
0.23
0.23
0.23
0.23
0.23
0.22
0.23
0.23
0.23
0.23
0.22
0.22
0.22
0.22
0.22
0.22
0.22
0.22
0.23
0.23
0.23
0.23
0.23
0.23
0.23
0.23
0.23
0.23
0.23
0.23
0.22
0.22
0.22
0.24
0.24
0.25
0.24
0.25
0.24
0.24
0.25
0.25
0.25
0.26
0.26
0.26
0.25
0.26
0.25
0.25
0.25
0.24
0.24
0.24
0.24
0.23
0.25
0.24
0.24
0.26
0.26
0.25
0.26
0.25
0.25
0.25
0.25
0.31
0.39
0.43
0.44
0.49
0.57
0.57
0.58
0.66
0.98
1.62
2.12
2.26
2.30
2.24
2.26
2.45
2.50
2.52
2.49
2.46
2.39
2.36
2.47
2.47
2.46
2.65
2.72
2.69
2.84
3.09
3.32
3.32
3.47
3.71
3.73
3.76
3.76
3.80
3.80
3.84
3.77
3.99
3.96
3.88
3.93
3.83
3.82
3.74
3.65
3.76
3.82
3.74
3.70
3.72
3.70
3.86
4.19
4.22
4.15
4.09
3.94
3.88
3.81
3.75
3.63
3.53
3.43
3.31
3.33
3.66
3.71
3.59
3.59
3.64
3.63
3.64
3.69
3.78
3.77
3.67
3.68
3.57
3.46
3.36
3.25
3.13
3.06
3.02
3.11
3.10
3.04
3.01
2.93
3.08
3.02
3.09
3.11
3.18
3.08
2.97
2.87
2.90
2.86
2.80
2.70
2.73
2.67
2.70
2.67
2.60
2.66
2.67
2.77
2.87
2.79
2.69
2.61
2.55
2.49
2.42
2.33
2.25
2.17
2.09
2.03
1.96
1.89
1.83
1.79
1.75
1.69
1.63
1.59
1.53
1.48
1.43
1.38
1.35
1.32
1.29
1.27
1.28
1.28
1.24
1.20
1.16
1.12
1.09
1.07
1.04
1.02
0.98
0.95
0.92
0.88
0.86
0.84
0.82
0.81
0.78
0.75
0.73
0.70
0.69
0.67
0.65
0.65
0.64
0.62
0.61
0.60
0.60
0.58
0.56
0.54
0.53
0.52
0.51
0.51
0.51
0.50
0.48
0.47
0.46
0.45
0.44
0.44
0.44
0.44
0.44
0.45
0.46
0.46
0.45
0.44
0.45
0.45
0.45
0.45
0.44
0.43
0.43
0.42
0.43
0.43
0.43
0.43
0.43
0.43
0.43
0.42
0.42
0.42
0.42
0.42
0.41
0.41
0.42
0.41
0.41
0.41
0.41
0.41
0.41
0.41
0.41
0.40
0.42
0.42
0.42
0.42
0.41
0.41
0.40
0.39
0.39
0.38
0.38
0.38
0.38
0.37
0.36
0.36
0.37
0.36
0.36
0.36
0.35
0.35
0.34
0.34
0.35
0.34
0.33
0.33
0.33
0.32
0.33
0.33
0.33
0.32
0.32
0.32
0.32
0.33
0.33
0.33
0.33
0.32
0.32
0.32
0.32
0.32
0.31
0.31
0.31
0.31
0.30
0.30
0.31
0.32
0.32
0.32
0.32
0.31
0.31
0.30
0.30
0.30
0.29
0.29
0.28
0.28
0.28
0.28
0.28
0.28
0.28
0.27
0.26
0.27
0.27
0.27
0.26
0.27
0.26
0.26
0.25
0.25
0.25
0.25
0.24
0.26
0.26
0.26
0.26
0.26
0.27
0.27
0.26
0.26
0.25
0.25
0.25
0.24
0.24
0.24
0.24
0.24
0.24
0.25
0.24
0.24
0.24
0.23
0.23
0.23
0.23
0.22
0.23
0.22
0.22
0.22
0.22
0.23
0.23
0.24
0.24
0.24
0.23
0.24
0.23
0.24
0.24
0.23
0.24
0.24
0.24
0.24
0.26
0.26
0.26
0.25
0.25
0.25
0.25
0.24
0.24
0.24
0.24
0.24
0.23
0.23
0.23
0.23
0.24
0.24
0.24
0.24
0.23
0.23
0.23
0.23
0.23
0.23
0.23
0.23
0.22
0.22
0.23
0.23
0.23
0.23
0.22
0.22
0.22
0.22
0.22
0.22
0.22
0.21
0.21
0.21
0.22
0.22
0.22
0.22
0.22
0.22
0.22
0.22
0.22
0.23
0.22
0.23
0.23
0.23
0.23
0.23
0.23
0.23
0.22
0.22
0.23
0.23
0.22
0.22
0.22
0.22
0.22
0.22
0.22
0.22
0.22
0.22
0.22
0.23
0.22
0.25
0.25
0.24
0.25
0.24
0.24
0.24
0.24
0.24
0.24
0.24
0.24
0.24
0.24
0.24
0.24
0.23
0.24
0.24
0.24
0.24
0.23
0.23
0.23
0.24
0.24
0.24
0.24
0.24
0.24
0.24
0.24
0.23
0.24
0.23
0.23
0.23
0.23
0.23
0.23
0.23
0.23
0.24
0.25
0.26
0.26
0.25
0.25
0.25
0.24
0.24
0.23
0.23
0.23
0.23
0.23
0.23
0.22
0.22
0.22
0.23
0.23
0.23
0.23
0.23
0.23
0.23
0.22
0.22
0.22
0.23
0.22
0.22
0.23
0.23
0.23
0.23
0.24
0.24
0.25
0.24
0.24
0.24
0.24
0.24
0.24
0.24
0.24
0.23
0.24
0.23
0.23
0.23
0.23
0.23
0.22
0.22
0.22
0.22
0.22
0.23
0.21
0.23
0.23
0.23
0.23
0.22
0.22
0.23
0.22
0.23
0.23
0.22
0.22
0.22
0.22
0.22
0.22
0.22
0.22
0.22
0.22
0.22
0.22
0.22
0.22
0.21
0.21
0.22
0.21
0.21
0.21
0.21
0.22
0.22
0.22
0.22
0.22
0.22
0.22
0.22
0.23
0.23
0.23
0.23
0.23
0.23
0.22
0.22
0.22
0.22
0.23
0.23
0.23
0.23
0.23
0.22
0.23
0.22
0.23
0.23
0.24
0.23
0.23
0.23
0.23
0.23
0.23
0.23
0.22
0.22
0.22
0.23
0.22
0.22
0.22
0.22
0.22
0.22
0.22
0.22
0.21
0.21
0.22
0.22
0.21
0.21
0.21
0.22
0.22
0.21
0.22
0.22
0.22
0.22
0.22
0.22
0.22
0.22
0.22
0.22
0.22
0.21
0.22
0.22
0.22
0.22
0.22
0.22
0.22
0.22
0.21
0.21
0.21
0.22
0.21
0.22
0.21
0.21
0.21
0.21
0.22
0.22
0.22
0.22
0.22
0.23
0.22
0.23
0.23
0.24
0.25
0.25
0.25
0.25
0.25
0.25
0.25
0.25
0.25
0.26
0.26
0.26
0.26
0.25
0.25
0.26
0.26
0.26
0.27
0.27
0.27
0.28
0.28
0.28
0.28
0.27
0.28
0.28
0.27
0.27
0.26
0.26
0.25
0.26
0.27
0.27
0.26
0.26
0.27
0.26
0.26
0.26
0.26
0.26
0.25
0.26
0.30
0.42
0.52
0.60
0.75
1.06
1.28
1.62
1.96
1.99
2.20
2.32
2.37
2.55
2.56
2.60
2.58
2.69
2.67
2.69
2.74
2.85
2.89
2.94
2.93
2.95
2.92
3.11
3.40
3.49
3.36
3.27
3.34
3.32
3.22
3.11
3.01
2.96
2.96
2.94
2.91
3.11
3.92
4.05
4.44
4.67
4.74
4.59
4.45
4.36
4.40
4.40
4.28
4.14
4.01
4.16
4.30
4.43
4.49
4.41
4.31
4.19
4.26
4.24
4.34
4.34
4.20
4.06
4.00
3.92
4.03
4.05
4.10
4.08
4.02
3.90
3.76
3.66
3.82
3.88
3.87
4.07
4.04
4.06
4.05
4.09
4.04
3.90
3.83
3.71
3.59
3.65
3.86
3.82
3.80
3.81
3.78
3.64
3.49
3.38
3.30
3.24
3.21
3.12
3.01
2.95
2.88
2.81
2.70
2.64
2.62
2.57
2.60
2.55
2.47
2.40
2.38
2.34
2.30
2.23
2.17
2.12
2.05
1.99
1.93
1.87
1.81
1.75
1.71
1.65
1.61
1.56
1.52
1.50
1.45
1.40
1.34
1.30
1.26
1.23
1.20
1.18
1.15
1.11
1.09
1.06
1.07
1.05
1.01
0.99
0.96
0.94
0.93
0.91
0.91
0.88
0.86
0.84
0.83
0.81
0.80
0.77
0.75
0.73
0.72
0.71
0.69
0.67
0.68
0.67
0.65
0.63
0.61
0.60
0.58
0.56
0.55
0.54
0.53
0.54
0.55
0.54
0.53
0.51
0.51
0.50
0.49
0.48
0.47
0.47
0.46
0.46
0.46
0.45
0.45
0.45
0.47
0.46
0.45
0.44
0.43
0.45
0.45
0.44
0.43
0.44
0.43
0.42
0.42
0.41
0.41
0.41
0.42
0.41
0.41
0.41
0.41
0.40
0.40
0.39
0.38
0.39
0.39
0.39
0.37
0.37
0.37
0.38
0.40
0.42
0.41
0.41
0.41
0.40
0.40
0.39
0.39
0.38
0.39
0.38
0.38
0.37
0.37
0.37
0.37
0.36
0.36
0.35
0.34
0.34
0.34
0.34
0.33
0.32
0.32
0.32
0.31
0.31
0.31
0.31
0.30
0.30
0.30
0.29
0.28
0.28
0.28
0.27
0.27
0.27
0.27
0.27
0.27
0.27
0.26
0.26
0.25
0.25
0.25
0.26
0.26
0.25
0.26
0.26
0.26
0.26
0.26
0.25
0.25
0.25
0.25
0.25
0.24
0.26
0.26
0.26
0.25
0.24
0.25
0.24
0.24
0.24
0.24
0.24
0.23
0.23
0.23
0.23
0.23
0.22
0.23
0.23
0.23
0.22
0.22
0.22
0.22
0.21
0.21
0.21
0.20
0.21
0.20
0.20
0.20
0.20
0.20
0.20
0.20
0.19
0.19
0.19
0.19
0.19
0.19
0.19
0.20
0.19
0.19
0.19
0.19
0.19
0.19
0.19
0.19
0.21
0.21
0.21
0.21
0.21
0.22
0.22
0.22
0.22
0.22
0.21
0.21
0.21
0.21
0.21
0.21
0.22
0.22
0.22
0.22
0.22
0.22
0.22
0.21
0.21
0.22
0.21
0.21
0.21
0.21
0.21
0.21
0.21
0.20
0.21
0.21
0.20
0.20
0.21
0.21
0.20
0.20
0.20
0.20
0.20
0.20
0.20
0.20
0.20
0.20
0.20
0.20
0.20
0.20
0.20
0.20
0.20
0.20
0.20
0.21
0.20
0.21
0.21
0.20
0.21
0.20
0.21
0.20
0.20
0.19
0.19
0.19
0.20
0.19
0.19
0.19
0.19
0.19
0.18
0.19
0.18
0.18
0.18
0.19
0.19
0.20
0.20
0.20
0.20
0.21
0.22
0.22
0.22
0.22
0.22
0.22
0.22
0.22
0.22
0.22
0.22
0.22
0.22
0.21
0.21
0.21
0.21
0.21
0.21
0.22
0.22
0.21
0.22
0.22
0.22
0.22
0.22
0.22
0.22
0.23
0.22
0.22
0.22
0.22
0.21
0.22
0.23
0.23
0.23
0.22
0.23
0.23
0.22
0.22
0.22
0.22
0.22
0.22
0.22
0.22
0.22
0.22
0.22
0.22
0.22
0.22
0.22
0.22
0.22
0.21
0.22
0.22
0.22
0.22
0.21
0.22
0.22
0.22
0.22
0.22
0.22
0.22
0.22
0.22
0.22
0.23
0.23
0.23
0.24
0.23
0.23
0.23
0.23
0.23
0.23
0.23
0.23
0.23
0.23
0.24
0.23
0.23
0.23
0.23
0.23
0.23
0.23
0.23
0.23
0.23
0.23
0.23
0.23
0.23
0.23
0.23
0.25
0.24
0.24
0.24
0.24
0.24
0.24
0.23
0.23
0.23
0.23
0.23
0.22
0.22
0.22
0.23
0.23
0.22
0.22
0.22
0.23
0.22
0.22
0.22
0.22
0.22
0.22
0.22
0.22
0.22
0.22
0.22
0.22
0.22
0.22
0.22
0.22
0.23
0.23
0.22
0.22
0.23
0.22
0.22
0.22
0.23
0.23
0.22
0.22
0.22
0.22
0.22
0.22
0.22
0.22
0.22
0.23
0.24
0.24
0.23
0.23
0.23
0.23
0.23
0.23
0.23
0.23
0.23
0.24
0.24
0.24
0.23
0.23
0.23
0.23
0.23
0.23
0.23
0.23
0.23
0.23
0.23
0.23
0.22
0.23
0.23
0.22
0.23
0.22
0.22
0.22
0.22
0.22
0.22
0.22
0.22
0.22
0.22
0.21
0.21
0.22
0.22
0.21
0.21
0.21
0.22
0.21
0.22
0.21
0.21
0.22
0.22
0.22
0.22
0.22
0.22
0.22
0.22
0.22
0.22
0.22
0.22
0.22
0.22
0.22
0.22
0.22
0.22
0.22
0.22
0.22
0.22
0.22
0.23
0.22
0.22
0.23
0.24
0.25
0.25
0.25
0.24
0.25
0.24
0.24
0.24
0.24
0.24
0.24
0.24
0.24
0.23
0.23
0.22
0.23
0.22
0.22
0.22
0.22
0.22
0.22
0.22
0.22
0.22
0.22
0.22
0.22
0.22
0.22
0.21
0.22
0.22
0.21
0.21
0.21
0.22
0.22
0.21
0.21
0.21
0.22
0.22
0.22
0.22
0.22
0.22
0.22
0.22
0.22
0.22
0.22
0.22
0.22
0.22
0.22
0.22
0.22
0.22
0.21
0.22
0.22
0.22
0.23
0.22
0.24
0.25
0.25
0.25
0.25
0.24
0.24
0.24
0.24
0.24
0.23
0.23
0.23
0.24
0.24
0.24
0.24
0.24
0.24
0.24
0.24
0.24
0.24
0.23
0.24
0.24
0.24
0.24
0.24
0.23
0.24
0.23
0.23
0.23
0.23
0.23
0.23
0.22
0.23
0.24
0.24
0.24
0.24
0.24
0.23
0.24
0.24
0.25
0.25
0.24
0.25
0.25
0.25
0.25
0.26
0.33
0.43
0.49
0.50
0.55
0.57
0.71
0.90
0.98
1.06
1.20
1.48
1.76
1.95
2.01
2.02
2.05
2.11
2.26
2.19
2.22
2.27
2.27
2.25
2.34
2.46
2.41
2.49
2.61
2.57
2.54
2.63
2.60
2.63
2.77
2.79
2.77
2.68
2.75
3.08
3.09
3.04
2.99
3.09
3.16
3.12
3.17
3.54
3.58
3.65
3.94
3.91
3.82
3.71
3.62
3.54
3.46
3.40
3.32
3.38
3.33
3.30
3.61
3.73
3.72
3.89
4.04
3.95
3.81
3.72
3.62
3.51
3.43
3.44
3.52
3.48
3.64
3.56
3.50
3.50
3.48
3.34
3.33
3.38
3.34
3.39
3.48
3.51
3.59
3.48
3.38
3.31
3.20
3.47
3.60
3.83
3.88
3.83
3.71
3.65
3.56
3.53
3.42
3.57
3.60
3.69
3.74
3.67
3.56
3.46
3.36
3.24
3.15
3.19
3.13
3.14
3.06
2.98
2.87
2.76
2.66
2.55
2.48
2.40
2.31
2.24
2.17
2.12
2.04
1.97
1.92
1.86
1.81
1.74
1.69
1.63
1.60
1.58
1.54
1.50
1.46
1.43
1.40
1.34
1.30
1.25
1.21
1.18
1.15
1.11
1.09
1.07
1.04
1.00
0.96
0.93
0.90
0.88
0.85
0.82
0.80
0.78
0.75
0.73
0.71
0.70
0.67
0.65
0.64
0.62
0.60
0.58
0.56
0.56
0.54
0.52
0.51
0.50
0.49
0.48
0.47
0.47
0.45
0.44
0.44
0.44
0.44
0.43
0.43
0.44
0.44
0.43
0.43
0.43
0.42
0.41
0.40
0.40
0.40
0.40
0.39
0.40
0.40
0.39
0.38
0.39
0.39
0.39
0.38
0.38
0.37
0.37
0.37
0.36
0.35
0.35
0.35
0.35
0.34
0.33
0.33
0.33
0.33
0.32
0.31
0.31
0.31
0.31
0.30
0.30
0.30
0.29
0.29
0.29
0.28
0.28
0.27
0.26
0.26
0.26
0.26
0.26
0.26
0.25
0.26
0.26
0.26
0.26
0.26
0.26
0.26
0.26
0.25
0.26
0.26
0.26
0.27
0.27
0.27
0.26
0.25
0.26
0.25
0.25
0.25
0.24
0.24
0.24
0.24
0.24
0.24
0.24
0.23
0.24
0.24
0.24
0.23
0.25
0.25
0.24
0.24
0.23
0.24
0.23
0.23
0.23
0.24
0.24
0.24
0.24
0.24
0.23
0.23
0.23
0.22
0.23
0.22
0.22
0.22
0.22
0.22
0.21
0.21
0.22
0.21
0.22
0.21
0.21
0.21
0.21
0.21
0.21
0.21
0.21
0.20
0.20
0.20
0.20
0.19
0.19
0.19
0.19
0.19
0.19
0.18
0.18
0.18
0.18
0.18
0.18
0.18
0.18
0.17
0.18
0.18
0.19
0.19
0.19
0.19
0.19
0.19
0.19
0.19
0.19
0.19
0.19
0.19
0.19
0.19
0.18
0.18
0.18
0.18
0.18
0.18
0.18
0.17
0.18
0.18
0.18
0.18
0.18
0.18
0.18
0.19
0.18
0.19
0.19
0.19
0.20
0.19
0.19
0.19
0.19
0.19
0.19
0.19
0.19
0.18
0.18
0.19
0.18
0.18
0.18
0.18
0.18
0.18
0.17
0.17
0.17
0.17
0.17
0.17
0.17
0.17
0.17
0.17
0.17
0.17
0.17
0.16
0.17
0.16
0.16
0.16
0.16
0.16
0.16
0.16
0.16
0.16
0.16
0.16
0.16
0.16
0.16
0.16
0.17
0.17
0.17
0.17
0.17
0.18
0.17
0.18
0.17
0.17
0.17
0.17
0.17
0.17
0.18
0.17
0.17
0.17
0.18
0.17
0.18
0.18
0.18
0.18
0.17
0.17
0.17
0.18
0.18
0.18
0.18
0.17
0.17
0.17
0.17
0.17
0.17
0.18
0.18
0.17
0.17
0.17
0.17
0.17
0.17
0.17
0.17
0.17
0.17
0.17
0.17
0.17
0.17
0.17
0.17
0.17
0.17
0.17
0.17
0.18
0.18
0.18
0.18
0.18
0.18
0.18
0.17
0.19
0.19
0.19
0.18
0.18
0.18
0.18
0.18
0.18
0.18
0.18
0.17
0.18
0.17
0.18
0.17
0.17
0.17
0.18
0.18
0.17
0.17
0.18
0.18
0.18
0.18
0.18
0.19
0.19
0.19
0.19
0.19
0.18
0.19
0.18
0.19
0.19
0.18
0.20
0.20
0.21
0.22
0.23
0.26
0.26
0.26
0.26
0.26
0.25
0.25
0.24
0.25
0.24
0.23
0.23
0.23
0.24
0.24
0.24
0.24
0.24
0.24
0.24
0.26
0.25
0.25
0.26
0.26
0.25
0.25
0.25
0.25
0.26
0.26
0.27
0.27
0.28
0.28
0.29
0.28
0.28
0.28
0.28
0.28
0.28
0.28
0.31
0.42
0.59
0.75
0.84
0.83
0.80
1.02
1.47
2.06
2.52
2.49
2.41
2.42
2.34
2.43
2.71
2.75
3.01
3.00
3.21
3.51
3.46
3.48
3.65
3.66
3.73
4.18
4.22
4.06
3.99
3.95
3.98
3.95
3.99
3.89
3.75
3.76
3.95
4.01
3.91
3.92
4.10
4.00
4.12
4.10
4.02
3.89
3.79
3.68
3.54
3.51
3.70
3.83
3.80
3.70
3.60
3.47
3.46
3.45
3.52
3.66
3.59
3.47
3.46
3.69
3.67
3.69
3.59
3.54
3.67
3.66
3.80
3.73
3.68
3.63
3.54
3.48
3.37
3.25
3.15
3.05
2.94
2.83
2.73
2.81
2.81
2.91
2.90
2.83
2.74
2.64
2.54
2.46
2.37
2.28
2.20
2.13
2.05
1.97
1.90
1.84
1.78
1.72
1.67
1.63
1.60
1.57
1.52
1.47
1.46
1.42
1.38
1.37
1.32
1.27
1.24
1.21
1.18
1.14
1.12
1.09
1.08
1.05
1.01
1.01
1.00
0.97
0.94
0.91
0.88
0.86
0.83
0.81
0.79
0.78
0.77
0.76
0.76
0.75
0.73
0.72
0.70
0.70
0.69
0.68
0.67
0.66
0.65
0.65
0.63
0.62
0.62
0.61
0.61
0.60
0.59
0.58
0.58
0.58
0.59
0.57
0.56
0.55
0.56
0.57
0.58
0.57
0.56
0.56
0.56
0.56
0.55
0.55
0.55
0.57
0.57
0.56
0.55
0.56
0.56
0.57
0.56
0.55
0.58
0.57
0.58
0.56
0.56
0.57
0.58
0.58
0.57
0.57
0.57
0.58
0.58
0.59
0.57
0.55
0.55
0.54
0.54
0.54
0.53
0.53
0.54
0.53
0.52
0.53
0.53
0.52
0.50
0.51
0.50
0.49
0.48
0.47
0.46
0.45
0.44
0.44
0.45
0.45
0.45
0.44
0.43
0.43
0.42
0.42
0.42
0.41
0.41
0.40
0.40
0.40
0.39
0.38
0.39
0.39
0.39
0.38
0.37
0.37
0.37
0.36
0.35
0.36
0.36
0.36
0.37
0.36
0.36
0.36
0.36
0.36
0.35
0.35
0.34
0.33
0.33
0.33
0.32
0.32
0.32
0.31
0.31
0.30
0.30
0.31
0.31
0.31
0.31
0.30
0.30
0.29
0.29
0.28
0.28
0.28
0.27
0.27
0.27
0.26
0.26
0.26
0.26
0.25
0.24
0.24
0.24
0.24
0.23
0.23
0.23
0.24
0.24
0.23
0.24
0.23
0.23
0.22
0.22
0.22
0.22
0.22
0.21
0.23
0.22
0.22
0.22
0.22
0.22
0.22
0.22
0.22
0.22
0.22
0.21
0.21
0.21
0.21
0.20
0.21
0.21
0.21
0.22
0.21
0.21
0.21
0.21
0.21
0.21
0.21
0.21
0.21
0.21
0.21
0.21
0.21
0.21
0.22
0.21
0.21
0.22
0.21
0.21
0.20
0.20
0.20
0.20
0.20
0.19
0.19
0.20
0.20
0.20
0.21
0.20
0.21
0.21
0.20
0.21
0.21
0.21
0.20
0.20
0.20
0.20
0.19
0.20
0.20
0.19
0.19
0.19
0.20
0.19
0.20
0.20
0.20
0.20
0.20
0.20
0.19
0.19
0.19
0.19
0.19
0.20
0.19
0.20
0.20
0.20
0.20
0.20
0.20
0.20
0.20
0.20
0.20
0.20
0.20
0.20
0.20
0.20
0.21
0.21
0.20
0.21
0.21
0.22
0.21
0.22
0.22
0.22
0.21
0.22
0.21
0.21
0.22
0.22
0.22
0.21
0.21
0.21
0.21
0.21
0.21
0.22
0.22
0.22
0.22
0.28
0.39
0.52
0.61
0.69
0.89
1.23
1.55
2.13
2.37
2.34
2.43
2.47
2.57
2.76
2.95
2.93
2.85
2.80
2.81
2.90
3.09
3.12
3.15
3.13
3.08
3.18
3.46
3.42
3.58
3.78
3.75
3.88
3.94
3.83
3.78
3.80
3.93
4.08
4.09
4.30
4.34
4.22
4.11
4.04
4.05
4.19
4.34
4.27
4.19
4.17
4.16
4.26
4.13
4.00
3.85
3.82
3.82
3.69
3.58
3.51
3.41
3.31
3.60
3.66
3.77
3.95
3.94
3.78
3.91
4.07
4.03
4.03
3.97
4.08
4.18
4.09
4.06
3.98
3.85
3.76
3.71
3.59
3.49
3.40
3.30
3.24
3.19
3.14
3.02
2.91
2.92
2.88
2.79
2.82
2.78
2.69
2.61
2.51
2.44
2.38
2.32
2.24
2.17
2.24
2.24
2.25
2.18
2.12
2.04
1.97
1.90
1.84
1.77
1.71
1.65
1.59
1.52
1.48
1.43
1.37
1.32
1.28
1.25
1.20
1.15
1.12
1.08
1.04
1.00
0.96
0.93
0.90
0.89
0.88
0.86
0.83
0.83
0.80
0.78
0.76
0.74
0.72
0.70
0.70
0.69
0.67
0.67
0.66
0.66
0.65
0.63
0.62
0.61
0.60
0.58
0.56
0.56
0.54
0.53
0.51
0.50
0.49
0.48
0.47
0.47
0.45
0.45
0.43
0.43
0.43
0.43
0.42
0.43
0.42
0.41
0.40
0.39
0.40
0.40
0.40
0.40
0.38
0.39
0.38
0.38
0.38
0.37
0.36
0.37
0.37
0.37
0.37
0.36
0.36
0.36
0.35
0.35
0.34
0.33
0.32
0.31
0.31
0.31
0.31
0.31
0.30
0.31
0.31
0.30
0.29
0.30
0.30
0.30
0.29
0.28
0.28
0.28
0.27
0.27
0.26
0.27
0.26
0.26
0.26
0.26
0.26
0.26
0.25
0.25
0.25
0.25
0.24
0.24
0.24
0.24
0.24
0.24
0.23
0.23
0.22
0.23
0.23
0.23
0.22
0.22
0.22
0.22
0.22
0.21
0.21
0.21
0.21
0.21
0.20
0.20
0.20
0.19
0.20
0.20
0.19
0.19
0.19
0.19
0.19
0.18
0.19
0.18
0.19
0.18
0.18
0.18
0.18
0.18
0.18
0.17
0.17
0.17
0.17
0.17
0.18
0.17
0.17
0.17
0.17
0.17
0.17
0.17
0.18
0.17
0.17
0.17
0.17
0.17
0.17
0.17
0.19
0.19
0.18
0.19
0.19
0.19
0.19
0.19
0.18
0.18
0.18
0.18
0.17
0.17
0.18
0.18
0.18
0.18
0.18
0.18
0.18
0.18
0.17
0.17
0.17
0.17
0.17
0.17
0.17
0.17
0.17
0.17
0.16
0.16
0.18
0.18
0.18
0.18
0.18
0.18
0.18
0.18
0.18
0.17
0.17
0.17
0.17
0.18
0.17
0.17
0.17
0.17
0.18
0.17
0.17
0.17
0.17
0.17
0.17
0.17
0.17
0.17
0.18
0.18
0.18
0.18
0.18
0.18
0.19
0.18
0.18
0.18
0.18
0.18
0.18
0.18
0.18
0.18
0.19
0.19
0.18
0.18
0.18
0.19
0.22
0.23
0.23
0.22
0.22
0.22
0.22
0.22
0.22
0.22
0.22
0.22
0.22
0.22
0.22
0.22
0.23
0.22
0.22
0.22
0.22
0.23
0.23
0.22
0.22
0.22
0.22
0.22
0.23
0.23
0.24
0.24
0.24
0.23
0.23
0.23
0.24
0.28
0.35
0.41
0.44
0.44
0.48
0.46
0.51
0.60
0.70
0.82
1.02
1.24
1.54
1.82
1.85
1.93
1.97
2.30
2.64
2.67
2.66
2.63
2.60
2.85
3.16
3.35
3.26
3.30
3.32
3.21
3.29
3.28
3.20
3.41
3.54
3.49
3.42
3.36
3.36
3.60
3.69
3.61
3.67
3.63
3.55
3.51
3.42
3.47
3.61
3.77
3.80
3.96
3.94
4.04
3.95
4.08
4.14
4.08
4.11
4.05
4.04
3.93
3.87
3.78
3.75
3.84
3.78
3.84
3.72
3.65
3.55
3.50
3.64
3.56
3.46
3.33
3.25
3.36
3.31
3.33
3.34
3.36
3.28
3.28
3.22
3.10
3.02
3.04
2.98
3.05
3.57
3.75
4.20
4.45
4.38
4.23
4.12
4.02
3.90
3.81
3.69
3.62
3.53
3.40
3.27
3.20
3.08
3.00
2.90
2.83
2.73
2.66
2.60
2.52
2.42
2.37
2.30
2.22
2.18
2.13
2.05
1.98
1.91
1.84
1.79
1.73
1.71
1.67
1.63
1.58
1.54
1.49
1.44
1.38
1.34
1.30
1.26
1.21
1.17
1.13
1.09
1.06
1.03
0.99
0.96
0.94
0.91
0.88
0.85
0.85
0.82
0.79
0.79
0.77
0.74
0.72
0.69
0.67
0.65
0.63
0.63
0.61
0.59
0.58
0.56
0.54
0.53
0.51
0.50
0.49
0.47
0.46
0.45
0.44
0.43
0.42
0.43
0.43
0.43
0.42
0.41
0.40
0.39
0.38
0.37
0.37
0.35
0.35
0.34
0.34
0.33
0.32
0.32
0.31
0.31
0.30
0.30
0.30
0.31
0.30
0.30
0.30
0.29
0.29
0.28
0.28
0.28
0.28
0.29
0.28
0.28
0.28
0.27
0.27
0.27
0.26
0.26
0.25
0.25
0.24
0.24
0.23
0.23
0.23
0.23
0.22
0.22
0.22
0.22
0.22
0.21
0.21
0.21
0.20
0.20
0.20
0.20
0.20
0.19
0.20
0.19
0.19
0.19
0.19
0.18
0.18
0.19
0.18
0.19
0.18
0.19
0.19
0.19
0.19
0.19
0.20
0.21
0.20
0.21
0.21
0.21
0.21
0.20
0.20
0.20
0.20
0.20
0.21
0.20
0.20
0.20
0.20
0.20
0.19
0.19
0.19
0.19
0.19
0.19
0.19
0.19
0.19
0.19
0.19
0.19
0.18
0.19
0.18
0.19
0.18
0.18
0.18
0.18
0.18
0.18
0.18
0.18
0.18
0.18
0.18
0.19
0.19
0.20
0.19
0.20
0.20
0.19
0.19
0.19
0.20
0.19
0.19
0.19
0.19
0.19
0.18
0.18
0.18
0.18
0.18
0.18
0.18
0.18
0.17
0.18
0.18
0.18
0.18
0.18
0.18
0.18
0.17
0.17
0.17
0.17
0.17
0.17
0.17
0.17
0.17
0.17
0.16
0.18
0.18
0.17
0.18
0.17
0.17
0.17
0.17
0.17
0.17
0.17
0.17
0.17
0.17
0.17
0.16
0.17
0.17
0.17
0.18
0.18
0.18
0.18
0.17
0.18
0.18
0.17
0.17
0.17
0.17
0.17
0.17
0.17
0.17
0.17
0.17
0.17
0.17
0.17
0.17
0.17
0.17
0.17
0.18
0.18
0.18
0.18
0.18
0.18
0.18
0.18
0.18
0.19
0.19
0.18
0.18
0.18
0.18
0.18
0.17
0.17
0.17
0.17
0.17
0.17
0.17
0.17
0.17
0.17
0.17
0.17
0.17
0.17
0.18
0.17
0.17
0.17
0.18
0.18
0.17
0.17
0.17
0.17
0.17
0.17
0.17
0.17
0.17
0.17
0.17
0.17
0.18
0.18
0.18
0.18
0.18
0.18
0.18
0.18
0.18
0.18
0.18
0.18
0.17
0.18
0.18
0.18
0.17
0.17
0.17
0.17
0.18
0.18
0.18
0.18
0.18
0.18
0.18
0.21
0.26
0.33
0.34
0.34
0.39
0.54
0.66
0.72
0.86
1.09
1.39
1.46
1.47
1.45
1.44
1.48
1.48
1.56
1.71
1.91
1.91
2.06
2.05
2.07
2.11
2.43
2.51
2.61
2.57
2.58
2.64
2.69
2.73
2.73
2.88
2.79
2.94
2.97
3.51
3.60
3.74
3.73
3.79
3.75
3.75
3.78
3.91
3.86
3.72
3.62
3.58
3.71
3.72
3.58
3.50
3.42
3.31
3.22
3.43
3.50
3.50
3.54
3.43
3.31
3.35
3.38
3.51
3.44
3.36
3.38
3.36
3.70
3.77
4.01
4.05
3.94
3.83
3.88
4.01
4.05
4.08
4.14
4.25
4.25
4.15
4.01
3.87
3.77
3.69
3.60
3.57
3.48
3.38
3.32
3.25
3.13
3.14
3.16
3.11
3.06
2.98
2.88
2.80
2.73
2.73
2.69
2.63
2.54
2.46
2.48
2.44
2.36
2.28
2.21
2.16
2.16
2.08
2.10
2.12
2.06
2.00
1.94
1.87
1.80
1.74
1.67
1.62
1.56
1.51
1.45
1.40
1.37
1.34
1.31
1.27
1.23
1.18
1.14
1.11
1.09
1.07
1.04
1.01
0.97
0.96
0.94
0.92
0.90
0.88
0.85
0.87
0.85
0.81
0.79
0.78
0.76
0.74
0.72
0.70
0.68
0.67
0.66
0.65
0.65
0.64
0.63
0.62
0.60
0.60
0.59
0.58
0.58
0.57
0.55
0.55
0.53
0.53
0.52
0.50
0.51
0.51
0.50
0.50
0.48
0.47
0.46
0.45
0.44
0.44
0.43
0.43
0.42
0.41
0.41
0.39
0.38
0.38
0.39
0.38
0.37
0.36
0.36
0.35
0.35
0.33
0.33
0.33
0.33
0.32
0.31
0.30
0.30
0.30
0.29
0.29
0.29
0.28
0.28
0.27
0.27
0.28
0.28
0.29
0.29
0.28
0.28
0.28
0.28
0.28
0.27
0.27
0.26
0.26
0.25
0.25
0.25
0.25
0.24
0.24
0.24
0.24
0.23
0.23
0.23
0.23
0.22
0.22
0.22
0.22
0.22
0.21
0.21
0.20
0.21
0.20
0.20
0.20
0.20
0.20
0.20
0.20
0.19
0.19
0.19
0.19
0.19
0.19
0.18
0.18
0.18
0.19
0.18
0.18
0.19
0.18
0.18
0.18
0.17
0.18
0.18
0.18
0.18
0.17
0.17
0.17
0.17
0.17
0.17
0.16
0.17
0.17
0.16
0.16
0.17
0.16
0.16
0.16
0.16
0.17
0.17
0.17
0.17
0.17
0.17
0.17
0.16
0.16
0.17
0.17
0.16
0.16
0.16
0.16
0.16
0.16
0.16
0.16
0.16
0.16
0.16
0.17
0.16
0.17
0.17
0.17
0.17
0.17
0.16
0.17
0.17
0.17
0.16
0.16
0.17
0.16
0.16
0.17
0.17
0.17
0.16
0.18
0.18
0.19
0.19
0.20
0.19
0.19
0.18
0.18
0.18
0.18
0.18
0.18
0.18
0.18
0.17
0.17
0.18
0.18
0.19
0.18
0.19
0.19
0.19
0.19
0.19
0.19
0.19
0.18
0.18
0.18
0.18
0.18
0.18
0.19
0.19
0.19
0.18
0.18
0.18
0.18
0.19
0.18
0.19
0.19
0.18
0.18
0.19
0.18
0.18
0.18
0.19
0.19
0.19
0.19
0.19
0.19
0.19
0.18
0.18
0.18
0.18
0.18
0.19
0.19
0.19
0.19
0.19
0.19
0.19
0.18
0.19
0.18
0.18
0.18
0.18
0.17
0.17
0.18
0.17
0.16
0.16
0.17
0.18
0.19
0.20
0.19
0.20
0.28
0.43
0.60
0.69
0.69
0.69
0.67
0.72
0.98
1.14
1.27
1.39
1.78
1.99
2.01
2.21
2.36
2.38
2.57
2.63
2.74
2.91
2.90
2.84
2.80
2.88
2.85
2.78
2.67
2.60
2.61
2.52
2.45
2.47
2.66
2.73
2.95
2.91
2.94
2.98
2.94
2.93
2.88
2.80
2.76
3.14
3.26
3.33
3.61
3.60
3.49
3.43
3.39
3.58
3.91
3.86
3.92
3.89
3.87
3.83
3.89
3.91
3.75
3.69
3.86
3.75
3.86
3.79
3.79
4.30
4.32
4.53
4.47
4.46
4.40
4.36
4.37
4.39
4.26
4.15
4.19
4.10
3.95
3.81
3.81
3.71
3.58
3.53
3.42
3.31
3.21
3.13
3.28
3.20
3.20
3.30
3.27
3.14
3.04
2.98
2.88
2.85
2.84
2.80
2.79
2.82
2.77
2.66
2.56
2.46
2.37
2.29
2.21
2.14
2.08
2.00
1.94
1.87
1.81
1.74
1.69
1.62
1.56
1.51
1.46
1.42
1.37
1.33
1.29
1.24
1.20
1.16
1.13
1.09
1.06
1.02
1.00
0.97
0.93
0.90
0.88
0.87
0.86
0.84
0.82
0.80
0.78
0.76
0.76
0.73
0.71
0.69
0.68
0.67
0.66
0.64
0.63
0.62
0.61
0.60
0.59
0.58
0.58
0.57
0.56
0.56
0.55
0.55
0.53
0.52
0.52
0.52
0.51
0.51
0.52
0.52
0.50
0.50
0.50
0.49
0.49
0.48
0.47
0.47
0.46
0.45
0.45
0.43
0.43
0.43
0.42
0.43
0.42
0.41
0.40
0.40
0.41
0.40
0.39
0.39
0.39
0.39
0.40
0.39
0.38
0.37
0.36
0.35
0.35
0.34
0.34
0.33
0.33
0.32
0.32
0.31
0.30
0.30
0.29
0.29
0.28
0.28
0.27
0.27
0.26
0.26
0.26
0.25
0.25
0.25
0.24
0.24
0.24
0.24
0.23
0.22
0.22
0.22
0.22
0.22
0.22
0.22
0.23
0.22
0.22
0.22
0.22
0.22
0.22
0.21
0.21
0.21
0.20
0.19
0.20
0.19
0.19
0.19
0.19
0.19
0.19
0.19
0.19
0.20
0.20
0.19
0.19
0.19
0.20
0.19
0.19
0.19
0.19
0.19
0.19
0.18
0.19
0.20
0.20
0.20
0.19
0.20
0.20
0.21
0.21
0.20
0.20
0.21
0.20
0.20
0.20
0.20
0.21
0.21
0.21
0.20
0.20
0.20
0.20
0.20
0.20
0.20
0.20
0.19
0.19
0.19
0.19
0.18
0.18
0.17
0.17
0.17
0.17
0.17
0.17
0.17
0.17
0.17
0.17
0.17
0.16
0.16
0.16
0.16
0.16
0.15
0.16
0.16
0.16
0.16
0.16
0.16
0.16
0.16
0.15
0.15
0.15
0.15
0.16
0.17
0.16
0.16
0.16
0.16
0.16
0.16
0.19
0.18
0.18
0.18
0.17
0.17
0.19
0.20
0.20
0.21
0.21
0.21
0.21
0.21
0.22
0.22
0.22
0.22
0.22
0.22
0.21
0.21
0.20
0.20
0.20
0.20
0.20
0.19
0.20
0.19
0.19
0.19
0.19
0.19
0.19
0.19
0.19
0.19
0.19
0.18
0.19
0.19
0.18
0.18
0.19
0.19
0.18
0.18
0.17
0.19
0.20
0.20
0.20
0.20
0.20
0.20
0.20
0.20
0.20
0.24
0.29
0.31
0.33
0.37
0.37
0.36
0.35
0.34
0.33
0.32
0.32
0.31
0.30
0.30
0.29
0.29
0.28
0.28
0.28
0.27
0.27
0.27
0.26
0.26
0.25
0.25
0.25
0.24
0.24
0.23
0.23
0.23
0.23
0.23
0.23
0.22
0.22
0.22
0.22
0.23
0.22
0.22
0.23
0.23
0.23
0.23
0.22
0.22
0.24
0.24
0.24
0.29
0.38
0.46
0.46
0.52
0.57
0.58
0.72
1.00
1.28
1.46
1.51
1.72
2.09
2.26
2.25
2.22
2.40
2.48
2.49
2.57
2.59
2.72
3.19
3.38
3.30
3.35
3.40
3.50
3.60
3.53
3.56
3.64
3.51
3.47
3.36
3.40
3.64
3.58
3.70
3.69
3.64
3.67
3.66
3.74
3.73
3.80
3.78
3.82
3.69
3.70
3.73
3.69
3.55
3.48
3.47
3.69
3.90
3.89
3.87
3.75
3.73
3.91
3.92
3.86
3.81
3.92
3.96
3.99
3.90
3.76
3.68
3.57
3.47
3.41
3.41
3.39
3.35
3.32
3.40
3.33
3.25
3.31
3.29
3.36
3.30
3.20
3.10
3.00
2.96
2.85
2.75
2.72
2.67
2.59
2.50
2.40
2.40
2.34
2.31
2.27
2.19
2.16
2.10
2.02
2.02
1.97
1.90
1.84
1.77
1.70
1.64
1.57
1.52
1.47
1.42
1.36
1.32
1.28
1.23
1.19
1.15
1.11
1.08
1.05
1.02
1.00
0.97
0.94
0.94
0.92
0.91
0.87
0.86
0.83
0.80
0.78
0.77
0.74
0.72
0.72
0.70
0.69
0.68
0.67
0.65
0.64
0.63
0.62
0.62
0.61
0.60
0.59
0.59
0.58
0.59
0.59
0.57
0.58
0.57
0.57
0.57
0.56
0.56
0.55
0.54
0.54
0.53
0.53
0.52
0.52
0.52
0.52
0.51
0.53
0.53
0.53
0.53
0.51
0.51
0.51
0.51
0.51
0.50
0.49
0.48
0.48
0.47
0.47
0.46
0.45
0.45
0.44
0.44
0.43
0.42
0.41
0.42
0.42
0.41
0.40
0.40
0.39
0.39
0.38
0.37
0.37
0.37
0.36
0.36
0.35
0.35
0.34
0.34
0.34
0.33
0.32
0.31
0.31
0.31
0.30
0.29
0.29
0.29
0.29
0.28
0.27
0.27
0.27
0.26
0.26
0.25
0.27
0.27
0.28
0.28
0.28
0.27
0.26
0.26
0.26
0.25
0.26
0.25
0.24
0.24
0.24
0.24
0.24
0.23
0.22
0.22
0.22
0.22
0.22
0.22
0.21
0.21
0.22
0.21
0.21
0.21
0.20
0.20
0.20
0.20
0.20
0.20
0.20
0.19
0.20
0.19
0.19
0.19
0.19
0.18
0.18
0.18
0.18
0.18
0.18
0.18
0.18
0.18
0.17
0.17
0.17
0.17
0.17
0.17
0.17
0.17
0.16
0.16
0.17
0.16
0.17
0.17
0.17
0.17
0.17
0.17
0.17
0.17
0.17
0.17
0.17
0.17
0.17
0.17
0.16
0.16
0.18
0.17
0.17
0.17
0.17
0.17
0.17
0.17
0.18
0.18
0.19
0.19
0.18
0.18
0.18
0.18
0.18
0.18
0.17
0.17
0.18
0.18
0.18
0.18
0.19
0.20
0.20
0.19
0.19
0.19
0.19
0.19
0.18
0.18
0.18
0.18
0.18
0.18
0.18
0.17
0.17
0.18
0.18
0.18
0.17
0.17
0.17
0.17
0.17
0.17
0.18
0.18
0.18
0.18
0.18
0.18
0.17
0.18
0.18
0.18
0.17
0.17
0.17
0.17
0.17
0.17
0.17
0.18
0.17
0.18
0.18
0.18
0.18
0.18
0.18
0.18
0.18
0.18
0.19
0.18
0.19
0.18
0.18
0.18
0.18
0.18
0.17
0.18
0.17
0.17
0.17
0.17
0.17
0.16
0.16
0.16
0.16
0.16
0.16
0.17
0.17
0.18
0.18
0.17
0.17
0.17
0.18
0.18
0.18
0.19
0.19
0.18
0.18
0.18
0.19
0.19
0.19
0.20
0.20
0.19
0.18
0.18
0.19
0.18
0.18
0.18
0.17
0.18
0.18
0.17
0.18
0.18
0.18
0.18
0.18
0.19
0.18
0.19
0.20
0.20
0.20
0.20
0.20
0.20
0.20
0.20
0.19
0.20
0.20
0.22
0.22
0.25
0.27
0.26
0.26
0.25
0.32
0.43
0.55
0.63
0.65
0.64
0.65
0.74
0.91
1.02
1.16
1.51
1.64
1.65
1.65
1.78
1.91
2.04
2.40
2.58
2.49
2.51
2.53
2.63
2.54
2.49
2.48
2.39
2.45
2.54
2.66
2.84
2.91
2.97
3.30
3.52
3.55
3.44
3.50
3.48
3.38
3.54
4.08
4.14
4.36
4.26
4.19
4.25
4.22
4.11
4.02
3.91
3.86
3.72
3.64
3.77
4.44
4.60
4.74
4.80
4.80
4.80
4.80
4.72
4.58
4.47
4.40
4.31
4.24
4.09
3.96
3.85
3.71
3.70
3.78
3.90
3.84
4.02
4.08
4.03
3.97
3.90
3.88
3.75
3.77
3.83
3.77
3.90
3.79
3.67
3.56
3.52
3.74
3.82
3.97
3.93
3.88
3.76
3.70
3.67
3.57
3.51
3.38
3.26
3.13
3.05
3.13
3.21
3.23
3.30
3.24
3.12
3.02
2.91
2.80
2.71
2.62
2.54
2.44
2.39
2.38
2.43
2.38
2.44
2.42
2.35
2.26
2.18
2.10
2.02
1.96
1.89
1.82
1.76
1.69
1.64
1.57
1.52
1.47
1.41
1.36
1.31
1.29
1.26
1.22
1.19
1.16
1.13
1.09
1.06
1.04
1.00
0.97
0.94
0.92
0.89
0.88
0.87
0.84
0.83
0.82
0.80
0.79
0.76
0.74
0.72
0.71
0.71
0.70
0.68
0.67
0.67
0.66
0.65
0.64
0.63
0.63
0.62
0.62
0.61
0.61
0.62
0.60
0.59
0.59
0.58
0.57
0.56
0.56
0.55
0.54
0.53
0.53
0.52
0.53
0.52
0.51
0.51
0.52
0.52
0.51
0.50
0.50
0.49
0.49
0.49
0.48
0.47
0.46
0.46
0.46
0.44
0.43
0.43
0.43
0.42
0.41
0.41
0.42
0.41
0.40
0.39
0.40
0.40
0.40
0.39
0.38
0.38
0.38
0.38
0.37
0.37
0.36
0.35
0.34
0.34
0.34
0.32
0.32
0.32
0.31
0.30
0.29
0.29
0.28
0.28
0.27
0.27
0.26
0.26
0.25
0.25
0.25
0.24
0.24
0.23
0.23
0.23
0.23
0.22
0.23
0.23
0.22
0.22
0.22
0.22
0.22
0.21
0.21
0.21
0.21
0.21
0.20
0.20
0.20
0.20
0.20
0.20
0.19
0.19
0.19
0.19
0.19
0.19
0.19
0.19
0.19
0.19
0.20
0.20
0.21
0.22
0.21
0.21
0.21
0.21
0.20
0.20
0.20
0.20
0.20
0.20
0.20
0.20
0.20
0.19
0.19
0.19
0.19
0.19
0.19
0.19
0.19
0.19
0.19
0.18
0.19
0.19
0.20
0.20
0.21
0.21
0.20
0.20
0.21
0.21
0.20
0.21
0.20
0.20
0.20
0.19
0.20
0.19
0.19
0.19
0.19
0.19
0.18
0.19
0.19
0.19
0.19
0.18
0.18
0.19
0.18
0.18
0.18
0.18
0.18
0.19
0.19
0.19
0.19
0.19
0.19
0.19
0.18
0.19
0.18
0.18
0.18
0.18
0.17
0.18
0.18
0.18
0.18
0.18
0.18
0.19
0.19
0.19
0.18
0.18
0.18
0.18
0.18
0.18
0.18
0.18
0.18
0.18
0.18
0.18
0.18
0.18
0.18
0.18
0.18
0.18
0.18
0.20
0.21
0.21
0.23
0.23
0.23
0.24
0.23
0.23
0.24
0.24
0.24
0.24
0.26
0.25
0.27
0.28
0.28
0.30
0.31
0.31
0.37
0.50
0.65
0.71
0.69
0.67
0.66
0.65
0.63
0.73
1.01
1.12
1.13
1.13
1.24
1.38
1.44
1.43
1.54
1.60
1.81
2.24
2.56
2.50
2.48
2.56
2.69
2.86
3.06
3.20
3.21
3.10
3.15
3.46
3.47
3.40
3.36
3.49
3.54
3.45
3.36
3.34
3.53
3.81
3.80
3.70
3.75
4.03
3.99
3.89
3.77
3.65
3.70
3.69
3.60
3.54
3.49
3.49
3.51
3.43
3.43
3.40
3.38
3.31
3.26
3.19
3.36
3.44
3.50
3.47
3.82
3.92
4.24
4.35
4.23
4.11
3.99
3.90
3.96
4.21
4.20
4.23
4.12
4.01
3.87
3.72
3.64
3.52
3.49
3.59
3.49
3.40
3.27
3.17
3.12
3.05
2.99
2.89
2.98
3.03
3.01
3.01
2.97
2.88
2.79
2.68
2.60
2.50
2.40
2.31
2.22
2.17
2.13
2.09
2.01
1.94
1.87
1.80
1.74
1.68
1.63
1.58
1.55
1.50
1.47
1.44
1.41
1.41
1.41
1.36
1.32
1.32
1.30
1.26
1.23
1.18
1.14
1.11
1.08
1.04
1.01
0.98
0.96
0.92
0.89
0.87
0.86
0.83
0.80
0.78
0.76
0.76
0.73
0.71
0.70
0.68
0.66
0.65
0.64
0.63
0.62
0.62
0.61
0.61
0.60
0.59
0.58
0.58
0.57
0.56
0.56
0.55
0.56
0.55
0.55
0.55
0.55
0.54
0.53
0.52
0.52
0.51
0.50
0.49
0.49
0.49
0.48
0.47
0.47
0.46
0.45
0.44
0.43
0.43
0.42
0.41
0.42
0.43
0.43
0.43
0.43
0.42
0.42
0.41
0.41
0.41
0.40
0.39
0.39
0.39
0.39
0.39
0.39
0.38
0.37
0.36
0.36
0.35
0.34
0.34
0.33
0.34
0.35
0.34
0.33
0.33
0.33
0.33
0.33
0.32
0.32
0.31
0.31
0.29
0.29
0.29
0.28
0.29
0.29
0.28
0.28
0.27
0.27
0.27
0.26
0.26
0.26
0.26
0.25
0.25
0.25
0.25
0.25
0.24
0.25
0.25
0.25
0.24
0.23
0.23
0.23
0.23
0.22
0.23
0.23
0.22
0.22
0.22
0.22
0.21
0.21
0.21
0.21
0.20
0.20
0.20
0.19
0.20
0.20
0.20
0.20
0.20
0.19
0.20
0.19
0.20
0.19
0.19
0.20
0.20
0.20
0.19
0.20
0.20
0.20
0.20
0.20
0.20
0.20
0.20
0.20
0.19
0.20
0.20
0.20
0.20
0.21
0.21
0.19
0.21
0.21
0.22
0.20
0.21
0.20
0.20
0.20
0.19
0.20
0.19
0.20
0.19
0.19
0.19
0.19
0.19
0.18
0.18
0.18
0.18
0.18
0.18
0.18
0.18
0.18
0.19
0.20
0.20
0.19
0.19
0.19
0.19
0.19
0.19
0.19
0.19
0.19
0.19
0.19
0.19
0.19
0.19
0.18
0.19
0.19
0.18
0.18
0.19
0.19
0.18
0.18
0.18
0.19
0.19
0.19
0.19
0.19
0.19
0.19
0.18
0.19
0.18
0.18
0.18
0.18
0.18
0.19
0.19
0.19
0.20
0.19
0.19
0.19
0.19
0.19
0.19
0.18
0.18
0.18
0.19
0.19
0.19
0.19
0.19
0.18
0.19
0.18
0.18
0.18
0.18
0.18
0.18
0.18
0.18
0.17
0.18
0.18
0.18
0.17
0.17
0.17
0.18
0.17
0.17
0.17
0.17
0.18
0.18
0.18
0.17
0.18
0.18
0.18
0.18
0.19
0.19
0.19
0.19
0.19
0.20
0.20
0.20
0.20
0.20
0.20
0.19
0.19
0.19
0.20
0.19
0.19
0.19
0.19
0.19
0.19
0.19
0.19
0.19
0.19
0.19
0.19
0.19
0.18
0.18
0.18
0.18
0.18
0.18
0.17
0.18
0.18
0.17
0.18
0.17
0.17
0.17
0.18
0.18
0.18
0.18
0.18
0.18
0.18
0.18
0.19
0.19
0.18
0.18
0.19
0.19
0.20
0.20
0.21
0.21
0.22
0.22
0.22
0.22
0.23
0.23
0.23
0.23
0.23
0.23
0.23
0.24
0.24
0.24
0.24
0.23
0.23
0.24
0.24
0.24
0.25
0.25
0.25
0.27
0.26
0.27
0.31
0.38
0.54
0.67
0.89
1.26
1.45
1.43
1.47
1.65
1.84
1.86
1.94
2.24
2.59
2.68
2.92
2.94
2.84
2.83
2.81
2.86
2.97
2.90
2.89
2.86
2.95
2.89
2.80
2.81
2.95
2.92
3.07
3.40
3.35
3.36
3.33
3.58
3.73
3.62
3.61
3.71
3.81
3.72
3.74
3.72
3.77
3.69
3.75
3.69
3.62
3.70
3.62
3.50
3.69
3.91
4.02
3.95
3.93
3.97
3.98
3.92
3.83
3.80
3.67
3.56
3.49
3.42
3.42
3.36
3.28
3.33
3.35
3.26
3.30
3.24
3.14
3.10
3.34
3.36
3.56
3.56
3.48
3.44
3.38
3.31
3.20
3.09
2.98
2.90
2.81
2.78
2.91
2.96
2.95
3.00
