1.53
1.54
1.55
1.55
1.56
1.59
1.61
1.62
1.62
1.62
1.62
1.61
1.61
1.57
1.53
1.52
1.52
1.60
1.58
1.53
1.49
1.49
1.55
1.57
1.52
1.49
1.48
1.50
1.55
1.51
1.47
1.46
1.46
1.54
1.52
1.47
1.42
1.43
1.49
1.52
1.47
1.43
1.43
1.45
1.52
1.47
1.43
1.42
1.42
1.50
1.48
1.43
1.39
1.40
1.45
1.48
1.43
1.39
1.39
1.41
1.48
1.44
1.39
1.38
1.39
1.47
1.44
1.39
1.34
1.36
1.41
1.43
1.38
1.34
1.35
1.36
1.42
1.38
1.33
1.33
1.33
1.40
1.37
1.33
1.28
1.31
1.35
1.37
1.33
1.31
1.33
1.34
1.40
1.36
1.34
1.35
1.37
1.53
1.55
1.55
1.54
1.56
1.73
1.75
1.81
1.82
1.78
1.93
2.13
2.14
2.20
2.20
2.17
2.12
2.15
2.11
2.16
2.11
2.06
2.01
1.96
2.01
2.02
1.98
1.99
2.00
1.97
1.98
2.10
2.12
2.24
2.34
2.39
2.52
2.45
2.40
2.38
2.31
2.35
2.29
2.27
2.30
2.27
2.24
2.26
2.22
2.21
2.14
2.09
2.19
2.14
2.17
2.35
2.43
2.60
2.60
2.56
2.62
2.68
2.77
2.82
2.76
2.75
2.70
2.67
2.84
2.81
2.77
2.88
2.96
3.11
3.12
3.05
3.10
3.10
3.14
3.12
3.04
3.08
3.20
3.26
3.41
3.36
3.31
3.36
3.38
3.49
3.47
3.38
3.41
3.43
3.48
3.49
3.40
3.40
3.42
3.43
3.54
3.46
3.39
3.42
3.42
3.50
3.46
3.36
3.38
3.37
3.41
3.39
3.29
3.26
3.26
3.21
3.27
3.17
3.08
3.01
2.90
2.87
2.82
2.82
2.73
2.65
2.61
2.58
2.61
2.54
2.46
2.37
2.38
2.36
2.33
2.26
2.18
2.19
2.16
2.17
2.12
2.05
2.02
2.00
2.04
2.00
1.94
1.88
1.90
1.90
1.89
1.83
1.76
1.80
1.78
1.82
1.77
1.71
1.69
1.69
1.74
1.71
1.65
1.58
1.61
1.63
1.64
1.59
1.54
1.54
1.54
1.61
1.56
1.51
1.50
1.50
1.57
1.55
1.51
1.49
1.51
1.55
1.60
1.55
1.51
1.52
1.52
1.58
1.53
1.48
1.47
1.48
1.56
1.54
1.49
1.46
1.47
1.52
1.57
1.52
1.49
1.49
1.51
1.60
1.56
1.52
1.52
1.52
1.63
1.62
1.58
1.56
1.55
1.63
1.68
1.64
1.62
1.62
1.64
1.73
1.69
1.66
1.65
1.65
1.75
1.74
1.70
1.68
1.67
1.75
1.80
1.75
1.72
1.70
1.73
1.82
1.77
1.75
1.74
1.74
1.84
1.82
1.78
1.75
1.74
1.81
1.86
1.80
1.78
1.76
1.79
1.88
1.82
1.79
1.78
1.77
1.88
1.86
1.81
1.77
1.76
1.83
1.87
1.81
1.77
1.76
1.78
1.86
1.80
1.76
1.75
1.74
1.84
1.81
1.76
1.74
1.72
1.78
1.81
1.75
1.71
1.71
1.72
1.80
1.75
1.71
1.69
1.69
1.77
1.74
1.69
1.65
1.64
1.71
1.74
1.67
1.64
1.62
1.64
1.73
1.69
1.65
1.65
1.63
1.71
1.67
1.61
1.57
1.57
1.62
1.65
1.58
1.54
1.54
1.55
1.63
1.58
1.53
1.52
1.51
1.60
1.57
1.52
1.48
1.49
1.54
1.57
1.52
1.48
1.48
1.50
1.56
1.52
1.48
1.47
1.48
1.56
1.55
1.49
1.46
1.46
1.53
1.56
1.52
1.55
1.58
1.73
1.80
1.81
1.82
1.80
1.80
1.90
1.91
1.96
1.97
1.96
1.91
1.89
1.90
1.83
1.81
1.82
1.84
1.82
1.79
1.81
1.80
1.82
1.84
1.86
1.79
1.79
1.94
1.99
1.94
1.89
1.87
1.92
2.06
2.10
2.09
2.08
2.15
2.35
2.38
2.64
2.75
2.89
2.84
2.78
2.74
2.66
2.81
2.81
2.76
2.69
2.64
2.60
2.53
2.52
2.48
2.49
2.44
2.56
2.55
2.56
2.57
2.75
2.91
2.98
3.17
3.16
3.34
3.46
3.53
3.46
3.40
3.40
3.38
3.44
3.34
3.27
3.29
3.28
3.36
3.28
3.23
3.30
3.28
3.24
3.25
3.23
3.26
3.27
3.21
3.32
3.31
3.27
3.33
3.36
3.45
3.41
3.32
3.37
3.40
3.46
3.46
3.37
3.38
3.42
3.45
3.56
3.49
3.43
3.46
3.48
3.56
3.51
3.43
3.46
3.47
3.51
3.52
3.43
3.41
3.44
3.45
3.54
3.45
3.36
3.38
3.39
3.49
3.44
3.34
3.34
3.33
3.34
3.34
3.28
3.18
3.06
2.95
2.93
2.90
2.86
2.76
2.66
2.64
2.59
2.60
2.51
2.41
2.38
2.35
2.38
2.33
2.26
2.17
2.19
2.18
2.18
2.11
2.04
2.04
2.02
2.05
1.99
1.94
1.91
1.90
1.94
1.90
1.83
1.76
1.79
1.79
1.81
1.74
1.68
1.69
1.68
1.74
1.69
1.62
1.61
1.60
1.67
1.64
1.58
1.53
1.55
1.59
1.62
1.56
1.52
1.52
1.54
1.63
1.59
1.54
1.53
1.53
1.63
1.61
1.55
1.51
1.52
1.58
1.62
1.57
1.53
1.52
1.56
1.65
1.61
1.58
1.58
1.57
1.68
1.68
1.65
1.63
1.62
1.70
1.76
1.72
1.71
1.70
1.73
1.83
1.79
1.77
1.77
1.77
1.88
1.88
1.85
1.84
1.82
1.89
1.95
1.90
1.87
1.86
1.89
1.99
1.95
1.92
1.91
1.91
2.00
1.97
1.93
1.91
1.89
1.96
2.00
1.95
1.93
1.91
1.94
2.03
1.97
1.94
1.92
1.90
2.00
1.97
1.92
1.89
1.87
1.95
1.98
1.92
1.88
1.86
1.88
1.96
1.91
1.87
1.85
1.83
1.94
1.92
1.86
1.83
1.81
1.87
1.89
1.83
1.79
1.78
1.80
1.87
1.81
1.76
1.75
1.74
1.83
1.80
1.74
1.70
1.69
1.77
1.80
1.74
1.70
1.69
1.71
1.79
1.74
1.71
1.70
1.70
1.77
1.74
1.70
1.65
1.65
1.71
1.74
1.68
1.63
1.63
1.65
1.71
1.66
1.60
1.59
1.58
1.66
1.63
1.57
1.53
1.53
1.58
1.60
1.54
1.50
1.50
1.51
1.57
1.52
1.46
1.45
1.45
1.53
1.50
1.45
1.40
1.41
1.47
1.49
1.44
1.39
1.39
1.41
1.49
1.44
1.39
1.37
1.37
1.45
1.42
1.37
1.33
1.34
1.40
1.41
1.39
1.33
1.36
1.36
1.41
1.38
1.33
1.31
1.32
1.39
1.37
1.33
1.28
1.32
1.36
1.41
1.46
1.60
1.65
1.66
1.64
1.63
1.62
1.65
1.65
1.71
1.69
1.67
1.67
1.65
1.71
1.76
1.90
1.89
1.97
1.93
1.92
1.91
1.91
1.92
1.92
1.91
1.90
1.92
1.92
1.98
1.94
1.96
2.03
2.06
2.21
2.19
2.16
2.16
2.17
2.16
2.17
2.32
2.35
2.45
2.49
2.61
2.55
2.51
2.46
2.46
2.59
2.53
2.49
2.50
2.50
2.57
2.62
2.54
2.50
2.53
2.62
2.76
2.68
2.65
2.72
2.73
2.81
2.79
2.75
2.79
2.78
2.83
2.96
2.91
2.95
3.02
3.06
3.19
3.12
3.05
3.11
3.14
3.21
3.20
3.15
3.23
3.28
3.37
3.42
3.34
3.34
3.36
3.33
3.40
3.35
3.30
3.38
3.41
3.52
3.50
3.41
3.44
3.46
3.52
3.55
3.46
3.44
3.46
3.45
3.54
3.46
3.39
3.42
3.42
3.50
3.45
3.36
3.37
3.36
3.39
3.40
3.29
3.26
3.24
3.21
3.28
3.19
3.11
3.10
3.05
3.11
3.04
2.97
2.95
2.92
2.90
2.86
2.86
2.79
2.68
2.59
2.58
2.57
2.56
2.46
2.38
2.36
2.34
2.38
2.30
2.22
2.18
2.16
2.21
2.17
2.09
2.02
2.03
2.05
2.08
2.01
1.93
1.93
1.93
1.99
1.93
1.86
1.83
1.83
1.89
1.86
1.79
1.73
1.74
1.78
1.81
1.74
1.69
1.70
1.69
1.75
1.70
1.64
1.62
1.62
1.70
1.67
1.61
1.56
1.58
1.62
1.66
1.59
1.55
1.55
1.57
1.65
1.60
1.56
1.55
1.55
1.67
1.68
1.65
1.62
1.61
1.69
1.75
1.70
1.66
1.65
1.68
1.77
1.73
1.71
1.71
1.70
1.83
1.83
1.81
1.80
1.79
1.89
1.95
1.93
1.94
1.93
1.96
2.08
2.05
2.05
2.06
2.06
2.20
2.18
2.16
2.16
2.12
2.19
2.26
2.21
2.19
2.17
2.20
2.30
2.26
2.27
2.27
2.25
2.37
2.36
2.32
2.28
2.25
2.32
2.38
2.33
2.30
2.27
2.30
2.40
2.35
2.32
2.31
2.29
2.38
2.35
2.30
2.27
2.23
2.30
2.35
2.31
2.29
2.25
2.27
2.35
2.29
2.24
2.21
2.19
2.30
2.27
2.20
2.16
2.13
2.18
2.21
2.15
2.12
2.08
2.10
2.17
2.11
2.08
2.07
2.04
2.13
2.10
2.04
1.99
1.97
2.04
2.06
1.99
1.95
1.93
1.95
2.02
1.96
1.91
1.89
1.88
1.96
1.93
1.87
1.83
1.81
1.87
1.90
1.84
1.79
1.78
1.80
1.87
1.81
1.76
1.75
1.74
1.82
1.79
1.74
1.69
1.69
1.73
1.75
1.72
1.71
1.71
1.72
1.77
1.71
1.66
1.64
1.63
1.70
1.66
1.61
1.57
1.59
1.61
1.61
1.57
1.52
1.53
1.52
1.57
1.53
1.48
1.48
1.48
1.53
1.51
1.46
1.42
1.46
1.47
1.48
1.46
1.41
1.45
1.44
1.48
1.45
1.39
1.37
1.37
1.48
1.50
1.52
1.47
1.53
1.55
1.58
1.54
1.55
1.54
1.63
1.75
1.72
1.66
1.66
1.69
1.70
1.73
1.87
1.93
2.05
2.07
2.07
2.14
2.18
2.27
2.28
2.38
2.31
2.23
2.19
2.15
2.20
2.19
2.32
2.30
2.32
2.71
2.82
3.06
3.07
3.01
2.99
2.96
2.93
2.93
3.08
3.14
3.07
3.06
3.08
3.08
3.17
3.08
3.02
3.04
3.04
3.13
3.09
3.02
3.04
3.05
3.12
3.14
3.06
2.99
2.98
2.97
2.96
2.92
2.96
3.07
3.13
3.26
3.25
3.15
3.15
3.17
3.26
3.32
3.24
3.26
3.30
3.32
3.44
3.37
3.30
3.34
3.35
3.45
3.42
3.33
3.35
3.36
3.42
3.45
3.35
3.32
3.30
3.28
3.38
3.30
3.26
3.27
3.23
3.26
3.22
3.17
3.22
3.24
3.29
3.30
3.21
3.19
3.21
3.20
3.28
3.21
3.14
3.15
3.15
3.22
3.16
3.07
3.07
3.07
3.11
3.11
3.02
2.98
2.97
2.95
3.02
2.93
2.86
2.85
2.82
2.86
2.79
2.73
2.70
2.66
2.64
2.61
2.64
2.58
2.49
2.43
2.40
2.39
2.38
2.29
2.20
2.19
2.18
2.23
2.16
2.08
2.05
2.04
2.11
2.08
2.02
1.95
1.95
1.97
1.99
1.93
1.86
1.86
1.85
1.91
1.85
1.79
1.77
1.77
1.83
1.80
1.74
1.67
1.69
1.73
1.76
1.70
1.64
1.65
1.66
1.73
1.68
1.63
1.62
1.62
1.72
1.68
1.63
1.60
1.60
1.69
1.74
1.68
1.64
1.63
1.66
1.76
1.71
1.69
1.69
1.69
1.80
1.80
1.77
1.77
1.75
1.86
1.92
1.87
1.84
1.82
1.86
1.98
1.93
1.91
1.90
1.89
2.00
1.99
1.97
1.96
1.93
2.02
2.09
2.04
2.01
1.98
2.03
2.12
2.09
2.07
2.06
2.04
2.16
2.15
2.12
2.11
2.08
2.16
2.20
2.15
2.11
2.08
2.11
2.21
2.15
2.14
2.15
2.12
2.19
2.16
2.11
2.08
2.06
2.13
2.17
2.12
2.08
2.05
2.08
2.16
2.11
2.07
2.05
2.04
2.14
2.11
2.08
2.04
2.02
2.09
2.12
2.06
2.08
2.04
2.07
2.15
2.09
2.06
2.05
2.03
2.12
2.08
2.03
2.01
1.99
2.06
2.09
2.03
2.00
1.96
1.99
2.06
2.00
1.96
1.93
1.91
2.01
1.98
1.91
1.86
1.85
1.91
1.93
1.86
1.82
1.81
1.82
1.89
1.83
1.78
1.76
1.75
1.83
1.80
1.74
1.70
1.70
1.75
1.77
1.72
1.68
1.67
1.69
1.76
1.70
1.65
1.63
1.64
1.73
1.70
1.64
1.59
1.60
1.65
1.67
1.63
1.63
1.62
1.62
1.66
1.61
1.55
1.54
1.53
1.61
1.57
1.52
1.48
1.49
1.54
1.55
1.50
1.46
1.46
1.47
1.53
1.49
1.44
1.43
1.42
1.51
1.48
1.43
1.40
1.40
1.45
1.46
1.43
1.38
1.40
1.40
1.44
1.41
1.36
1.35
1.36
1.42
1.40
1.36
1.30
1.34
1.37
1.38
1.34
1.33
1.35
1.47
1.55
1.54
1.49
1.50
1.52
1.62
1.63
1.57
1.57
1.69
1.68
1.69
1.65
1.60
1.68
1.64
1.64
1.61
1.59
1.61
1.59
1.57
1.52
1.48
1.48
1.66
1.65
1.63
1.61
1.63
1.70
1.75
1.72
1.71
1.74
1.90
1.97
1.98
1.97
1.94
1.91
1.90
1.88
1.88
1.94
1.93
2.05
2.10
2.10
2.07
2.03
2.02
2.04
2.06
2.11
2.29
2.39
2.55
2.53
2.51
2.58
2.62
2.75
2.74
2.68
2.74
2.78
2.85
2.88
2.81
2.84
2.90
2.96
3.07
3.00
2.93
2.89
2.83
2.99
3.11
3.09
3.18
3.23
3.30
3.36
3.29
3.30
3.34
3.36
3.46
3.38
3.33
3.38
3.40
3.50
3.47
3.39
3.42
3.44
3.50
3.52
3.43
3.43
3.44
3.45
3.55
3.47
3.41
3.43
3.44
3.52
3.48
3.38
3.39
3.40
3.46
3.46
3.37
3.35
3.34
3.32
3.39
3.29
3.22
3.23
3.21
3.27
3.20
3.11
3.09
3.06
3.08
3.06
2.98
2.93
2.84
2.74
2.72
2.71
2.68
2.59
2.50
2.48
2.45
2.51
2.42
2.34
2.30
2.27
2.32
2.27
2.18
2.11
2.11
2.13
2.13
2.06
1.99
1.99
1.98
2.04
1.97
1.90
1.88
1.88
1.93
1.90
1.84
1.77
1.79
1.83
1.84
1.79
1.73
1.74
1.74
1.82
1.77
1.72
1.70
1.70
1.77
1.73
1.67
1.62
1.64
1.68
1.72
1.67
1.64
1.64
1.68
1.77
1.72
1.68
1.68
1.68
1.79
1.78
1.76
1.76
1.74
1.83
1.88
1.84
1.85
1.83
1.91
2.02
1.99
1.98
1.97
1.97
2.09
2.09
2.09
2.09
2.06
2.16
2.20
2.16
2.14
2.11
2.14
2.23
2.19
2.18
2.16
2.14
2.25
2.22
2.18
2.16
2.13
2.20
2.24
2.19
2.17
2.13
2.17
2.25
2.20
2.17
2.16
2.14
2.24
2.22
2.18
2.16
2.13
2.20
2.22
2.16
2.13
2.10
2.13
2.20
2.14
2.11
2.09
2.08
2.17
2.13
2.08
2.04
2.02
2.09
2.11
2.05
2.02
2.00
2.01
2.08
2.03
1.97
1.95
1.94
2.03
2.01
1.96
1.91
1.90
1.96
1.96
1.90
1.85
1.83
1.85
1.92
1.86
1.81
1.80
1.79
1.87
1.83
1.76
1.72
1.72
1.78
1.81
1.74
1.70
1.68
1.70
1.76
1.71
1.67
1.66
1.65
1.74
1.71
1.65
1.60
1.60
1.66
1.68
1.62
1.58
1.58
1.60
1.67
1.61
1.57
1.56
1.56
1.63
1.60
1.55
1.50
1.51
1.56
1.58
1.53
1.48
1.49
1.50
1.57
1.52
1.50
1.50
1.50
1.57
1.53
1.48
1.43
1.47
1.52
1.54
1.49
1.43
1.46
1.47
1.51
1.48
1.44
1.43
1.44
1.48
1.45
1.42
1.38
1.42
1.44
1.43
1.41
1.36
1.38
1.40
1.49
1.44
1.41
1.41
1.41
1.51
1.49
1.49
1.47
1.50
1.52
1.54
1.51
1.54
1.70
1.69
1.72
1.70
1.67
1.68
1.70
1.87
1.88
1.86
1.80
1.81
1.84
1.84
1.77
1.75
1.87
1.87
1.86
1.81
1.81
1.96
2.04
2.00
1.99
2.01
2.02
2.12
2.07
2.01
1.96
1.91
2.09
2.08
2.12
2.08
2.08
2.14
2.15
2.11
2.12
2.15
2.17
2.28
2.23
2.19
2.24
2.24
2.33
2.29
2.24
2.24
2.21
2.20
2.20
2.15
2.14
2.13
2.14
2.24
2.20
2.19
2.24
2.28
2.38
2.32
2.29
2.33
2.34
2.38
2.39
2.34
2.29
2.26
2.25
2.32
2.28
2.26
2.27
2.26
2.34
2.28
2.24
2.23
2.21
2.24
2.25
2.21
2.18
2.17
2.14
2.22
2.16
2.12
2.12
2.09
2.17
2.12
2.09
2.09
2.08
2.10
2.09
2.08
2.04
2.06
2.06
2.15
2.10
2.06
2.07
2.05
2.12
2.07
2.04
2.04
2.02
2.07
2.07
2.05
2.01
1.99
1.95
2.01
1.97
1.94
1.90
1.85
1.92
1.88
1.87
1.85
1.82
1.88
1.89
1.87
1.84
1.84
1.82
1.88
1.86
1.84
1.83
1.79
1.86
1.82
1.82
1.80
1.77
1.79
1.79
1.80
1.76
1.72
1.66
1.68
1.68
1.66
1.63
1.57
1.60
1.59
1.62
1.58
1.53
1.52
1.53
1.59
1.56
1.51
1.46
1.48
1.53
1.55
1.51
1.46
1.47
1.48
1.55
1.52
1.52
1.52
1.53
1.62
1.60
1.55
1.52
1.53
1.59
1.62
1.57
1.58
1.58
1.61
1.70
1.65
1.61
1.61
1.60
1.71
1.70
1.67
1.63
1.63
1.71
1.74
1.69
1.65
1.64
1.67
1.75
1.71
1.67
1.66
1.65
1.75
1.73
1.68
1.66
1.66
1.74
1.78
1.73
1.71
1.69
1.74
1.82
1.76
1.72
1.70
1.69
1.78
1.75
1.71
1.67
1.66
1.75
1.78
1.73
1.68
1.67
1.70
1.77
1.72
1.67
1.66
1.66
1.75
1.73
1.68
1.64
1.64
1.71
1.73
1.67
1.63
1.62
1.65
1.73
1.67
1.63
1.62
1.62
1.71
1.68
1.64
1.59
1.60
1.67
1.70
1.64
1.60
1.59
1.61
1.68
1.62
1.57
1.57
1.57
1.66
1.62
1.57
1.53
1.53
1.59
1.60
1.55
1.51
1.50
1.52
1.59
1.53
1.49
1.48
1.48
1.57
1.53
1.48
1.44
1.45
1.51
1.52
1.47
1.43
1.42
1.44
1.50
1.46
1.41
1.40
1.40
1.48
1.45
1.40
1.35
1.37
1.44
1.47
1.41
1.36
1.37
1.39
1.44
1.41
1.35
1.34
1.35
1.42
1.40
1.35
1.30
1.33
1.38
1.39
1.35
1.30
1.32
1.34
1.39
1.35
1.31
1.31
1.32
1.41
1.43
1.50
1.55
1.55
1.52
1.51
1.52
1.50
1.55
1.52
1.54
1.51
1.45
1.45
1.45
1.48
1.45
1.42
1.47
1.52
1.71
1.74
1.70
1.66
1.67
1.74
1.78
1.87
1.91
1.93
1.89
1.89
1.85
1.81
1.81
1.89
1.89
1.97
1.99
1.96
2.06
2.03
2.00
2.00
1.95
2.04
2.11
2.08
2.07
2.03
1.95
1.95
1.91
1.95
2.00
1.96
2.02
2.02
1.98
1.97
2.08
2.18
2.18
2.19
2.17
2.23
2.23
2.28
2.21
2.21
2.31
2.41
2.59
2.59
2.54
2.61
2.65
2.75
2.80
2.73
2.77
2.81
2.83
2.91
2.82
2.81
2.92
2.96
3.05
3.04
2.99
3.06
3.09
3.10
3.04
2.96
3.05
3.12
3.16
3.27
3.21
3.20
3.28
3.32
3.45
3.42
3.35
3.38
3.41
3.48
3.51
3.41
3.42
3.44
3.45
3.54
3.46
3.40
3.43
3.44
3.53
3.48
3.39
3.41
3.41
3.47
3.48
3.37
3.36
3.36
3.35
3.43
3.33
3.26
3.26
3.24
3.30
3.23
3.13
3.12
3.09
3.11
3.08
3.00
2.95
2.91
2.86
2.91
2.83
2.76
2.75
2.72
2.78
2.70
2.70
2.61
2.51
2.47
2.43
2.48
2.42
2.34
2.26
2.27
2.33
2.33
2.24
2.17
2.16
2.15
2.21
2.14
2.07
2.04
2.02
2.10
2.06
2.01
1.96
1.97
2.02
2.01
1.94
1.87
1.87
1.85
1.90
1.84
1.77
1.75
1.74
1.81
1.76
1.70
1.64
1.66
1.71
1.71
1.65
1.59
1.60
1.60
1.66
1.61
1.55
1.53
1.53
1.61
1.58
1.52
1.49
1.50
1.56
1.57
1.52
1.48
1.49
1.52
1.59
1.54
1.51
1.50
1.50
1.60
1.57
1.53
1.49
1.50
1.58
1.62
1.57
1.55
1.53
1.60
1.68
1.63
1.61
1.61
1.62
1.74
1.74
1.72
1.71
1.71
1.79
1.83
1.78
1.77
1.75
1.79
1.89
1.84
1.83
1.82
1.83
1.94
1.91
1.88
1.86
1.84
1.94
1.97
1.94
1.92
1.89
1.94
2.03
1.97
1.96
1.95
1.94
2.04
2.00
1.96
1.94
1.93
2.01
2.04
1.99
1.97
1.94
1.97
2.06
2.00
1.97
1.96
1.95
2.05
2.01
1.97
1.94
1.92
2.01
2.04
1.98
1.95
1.93
1.96
2.04
1.98
1.96
1.94
1.94
2.03
2.00
1.96
1.93
1.92
1.99
2.01
1.96
1.92
1.90
1.93
2.00
1.94
1.89
1.88
1.87
1.96
1.92
1.87
1.84
1.83
1.90
1.91
1.84
1.81
1.79
1.82
1.88
1.82
1.77
1.76
1.75
1.84
1.80
1.74
1.71
1.70
1.76
1.77
1.71
1.68
1.66
1.69
1.74
1.69
1.64
1.63
1.62
1.70
1.66
1.60
1.55
1.56
1.63
1.63
1.57
1.53
1.53
1.54
1.60
1.55
1.51
1.49
1.49
1.57
1.54
1.49
1.44
1.46
1.53
1.55
1.50
1.44
1.45
1.46
1.52
1.48
1.43
1.42
1.43
1.49
1.47
1.41
1.36
1.39
1.45
1.45
1.41
1.36
1.37
1.39
1.44
1.41
1.35
1.35
1.36
1.43
1.40
1.35
1.32
1.34
1.46
1.48
1.43
1.43
1.43
1.52
1.60
1.61
1.63
1.69
1.68
1.69
1.65
1.60
1.58
1.59
1.57
1.54
1.52
1.49
1.53
1.58
1.77
1.88
1.93
1.93
1.95
2.09
2.07
2.10
2.15
2.27
2.22
2.16
2.12
2.05
2.09
2.07
2.10
2.05
2.02
2.09
2.10
2.16
2.13
2.17
2.11
2.12
2.07
2.04
2.09
2.07
2.08
2.06
2.01
1.97
1.92
1.98
2.05
2.02
2.01
1.98
1.93
2.00
2.06
2.06
2.13
2.15
2.29
2.24
2.22
2.24
2.23
2.29
2.31
2.28
2.28
2.30
2.35
2.43
2.38
2.38
2.34
2.51
2.77
2.81
2.76
2.77
2.74
2.83
2.97
2.92
2.86
2.82
2.94
3.07
3.02
2.96
2.97
3.04
3.23
3.23
3.16
3.16
3.16
3.21
3.21
3.13
3.18
3.22
3.26
3.41
3.34
3.31
3.35
3.35
3.38
3.27
3.21
3.30
3.37
3.46
3.48
3.39
3.39
3.41
3.41
3.50
3.42
3.36
3.38
3.38
3.48
3.42
3.33
3.35
3.35
3.40
3.39
3.28
3.29
3.27
3.24
3.31
3.24
3.19
3.21
3.20
3.29
3.22
3.14
3.13
3.11
3.14
3.11
3.03
3.00
2.97
2.92
2.95
2.91
2.87
2.76
2.67
2.64
2.60
2.63
2.54
2.45
2.41
2.37
2.42
2.37
2.28
2.21
2.20
2.22
2.20
2.13
2.06
2.07
2.05
2.09
2.02
1.95
1.92
1.91
1.96
1.92
1.85
1.78
1.80
1.84
1.84
1.77
1.72
1.72
1.72
1.78
1.73
1.67
1.65
1.65
1.74
1.70
1.65
1.62
1.63
1.71
1.72
1.66
1.61
1.61
1.64
1.73
1.68
1.61
1.60
1.61
1.70
1.66
1.62
1.57
1.59
1.65
1.67
1.62
1.58
1.58
1.61
1.70
1.66
1.61
1.62
1.63
1.74
1.72
1.68
1.66
1.66
1.75
1.78
1.74
1.72
1.70
1.75
1.86
1.82
1.79
1.78
1.78
1.91
1.89
1.85
1.83
1.82
1.92
1.95
1.91
1.90
1.87
1.92
2.01
1.96
1.95
1.94
1.94
2.05
2.03
1.99
1.97
1.96
2.06
2.09
2.04
2.03
1.99
2.05
2.13
2.08
2.05
2.03
2.03
2.13
2.10
2.06
2.03
2.01
2.10
2.12
2.07
2.04
2.01
2.06
2.14
2.08
2.06
2.05
2.04
2.13
2.09
2.04
2.01
2.00
2.08
2.09
2.03
1.99
1.97
2.00
2.08
2.02
1.98
1.97
1.96
2.05
2.00
1.96
1.92
1.91
1.98
1.98
1.93
1.89
1.87
1.89
1.97
1.91
1.86
1.84
1.83
1.92
1.87
1.82
1.77
1.77
1.85
1.85
1.79
1.75
1.74
1.76
1.83
1.77
1.73
1.71
1.70
1.79
1.75
1.71
1.69
1.68
1.78
1.78
1.72
1.66
1.65
1.67
1.72
1.67
1.62
1.61
1.61
1.70
1.66
1.62
1.61
1.60
1.72
1.73
1.67
1.65
1.70
1.94
2.07
2.07
2.07
2.11
2.09
2.11
2.05
1.99
1.91
1.94
1.96
1.94
1.87
1.81
1.82
1.81
1.85
1.80
1.73
1.72
1.71
1.77
1.73
1.67
1.61
1.63
1.68
1.67
1.61
1.56
1.57
1.57
1.61
1.57
1.51
1.51
1.51
1.58
1.55
1.49
1.44
1.46
1.63
1.87
1.98
2.04
2.03
2.13
2.23
2.18
2.11
2.09
2.05
2.02
2.04
2.03
2.01
2.01
2.04
2.08
2.26
2.23
2.26
2.29
2.27
2.32
2.36
2.46
2.50
2.42
2.41
2.42
2.37
2.45
2.88
3.01
3.14
3.18
3.27
3.22
3.13
3.07
3.15
3.33
3.32
3.32
3.26
3.41
3.51
3.67
3.61
3.57
3.61
3.62
3.73
3.68
3.59
3.59
3.56
3.65
3.69
3.59
3.52
3.49
3.51
3.62
3.56
3.55
3.55
3.50
3.50
3.47
3.45
3.56
3.58
3.61
3.60
3.50
3.56
3.63
3.66
3.76
3.69
3.63
3.62
3.58
3.70
3.67
3.58
3.60
3.59
3.63
3.60
3.49
3.51
3.42
3.36
3.51
3.48
3.45
3.46
3.41
3.53
3.51
3.44
3.47
3.48
3.53
3.53
3.42
3.42
3.41
3.40
3.45
3.38
3.29
3.34
3.37
3.47
3.41
3.32
3.33
3.33
3.37
3.36
3.26
3.20
3.14
3.12
3.24
3.17
3.11
3.12
3.11
3.19
3.11
3.04
3.04
3.03
3.07
3.05
2.97
2.95
2.94
2.92
2.97
2.88
2.82
2.82
2.80
2.88
2.80
2.74
2.74
2.72
2.76
2.74
2.68
2.65
2.61
2.58
2.63
2.57
2.51
2.50
2.45
2.48
2.42
2.47
2.40
2.36
2.32
2.29
2.39
2.33
2.26
2.21
2.19
2.25
2.27
2.20
2.15
2.14
2.14
2.20
2.13
2.08
2.06
2.04
2.11
2.06
2.00
1.95
1.95
2.02
2.03
1.96
1.91
1.90
1.92
1.98
1.93
1.88
1.87
1.86
1.95
1.92
1.87
1.82
1.82
1.90
1.92
1.86
1.81
1.80
1.82
1.90
1.85
1.81
1.80
1.80
1.91
1.88
1.84
1.82
1.81
1.90
1.93
1.88
1.88
1.85
1.91
2.02
1.99
1.98
1.98
1.99
2.12
2.11
2.10
2.08
2.07
2.17
2.21
2.17
2.17
2.14
2.20
2.30
2.28
2.27
2.23
2.22
2.34
2.31
2.29
2.27
2.24
2.35
2.38
2.34
2.32
2.28
2.34
2.42
2.37
2.36
2.34
2.33
2.43
2.40
2.37
2.35
2.31
2.40
2.42
2.39
2.37
2.33
2.36
2.44
2.39
2.35
2.33
2.32
2.42
2.38
2.34
2.31
2.28
2.37
2.38
2.32
2.29
2.25
2.30
2.38
2.32
2.28
2.26
2.24
2.34
2.29
2.24
2.21
2.18
2.29
2.29
2.23
2.20
2.16
2.19
2.25
2.19
2.15
2.12
2.12
2.26
2.20
2.15
2.10
2.09
2.16
2.16
2.08
2.04
2.01
2.03
2.09
2.02
1.98
1.96
1.95
2.03
1.99
1.93
1.88
1.87
1.95
1.95
1.89
1.84
1.83
1.86
1.92
1.85
1.81
1.80
1.79
1.88
1.83
1.77
1.73
1.73
1.80
1.79
1.74
1.69
1.68
1.70
1.76
1.71
1.65
1.64
1.64
1.72
1.68
1.62
1.58
1.59
1.66
1.66
1.60
1.56
1.55
1.57
1.62
1.57
1.52
1.52
1.52
1.60
1.56
1.51
1.47
1.48
1.56
1.55
1.50
1.46
1.45
1.48
1.54
1.50
1.45
1.44
1.44
1.52
1.49
1.44
1.39
1.41
1.48
1.48
1.43
1.39
1.39
1.41
1.46
1.43
1.38
1.37
1.38
1.46
1.43
1.38
1.33
1.36
1.42
1.42
1.38
1.33
1.34
1.37
1.43
1.38
1.33
1.33
1.35
1.43
1.41
1.36
1.31
1.35
1.41
1.42
1.38
1.33
1.35
1.43
1.54
1.52
1.52
1.53
1.57
1.79
1.77
1.78
1.85
1.92
2.04
2.09
2.02
2.01
2.02
2.01
1.99
1.97
1.91
1.90
1.90
1.94
1.91
1.85
1.78
1.83
1.79
1.77
1.72
1.66
1.73
1.69
1.72
1.67
1.72
1.86
1.91
1.89
1.85
1.79
1.72
1.74
1.71
1.69
1.75
1.76
1.84
1.80
1.79
1.74
1.74
1.91
1.94
1.93
1.91
1.95
2.00
2.14
2.11
2.06
1.99
1.96
2.00
1.97
1.99
2.00
2.07
2.20
2.20
2.18
2.17
2.25
2.25
2.25
2.19
2.23
2.32
2.35
2.52
2.54
2.51
2.52
2.56
2.69
2.72
2.67
2.75
2.82
2.88
3.01
2.96
2.88
2.88
2.94
3.05
3.08
3.04
3.01
3.04
3.16
3.17
3.08
3.15
3.23
3.23
3.25
3.20
3.23
3.32
3.34
3.44
3.36
3.30
3.33
3.32
3.40
3.45
3.35
3.29
3.18
3.11
3.32
3.30
3.28
3.34
3.31
3.37
3.32
3.25
3.29
3.27
3.34
3.32
3.23
3.23
3.25
3.25
3.31
3.21
3.16
3.12
3.10
3.26
3.19
3.12
3.16
3.14
3.13
3.08
3.01
3.07
3.10
3.10
3.18
3.11
3.04
3.02
3.00
3.09
3.04
2.97
2.98
2.97
3.03
3.00
2.93
2.91
2.89
2.87
2.93
2.86
2.81
2.81
2.80
2.86
2.78
2.72
2.73
2.73
2.79
2.77
2.70
2.68
2.66
2.65
2.70
2.63
2.57
2.54
2.50
2.54
2.47
2.44
2.36
2.29
2.25
2.22
2.31
2.25
2.18
2.12
2.11
2.17
2.18
2.12
2.07
2.06
2.05
2.10
2.04
1.97
1.96
1.94
2.01
1.96
1.91
1.86
1.87
1.94
1.94
1.87
1.81
1.80
1.83
1.90
1.84
1.79
1.78
1.78
1.87
1.83
1.78
1.76
1.76
1.83
1.84
1.78
1.74
1.72
1.75
1.82
1.77
1.73
1.73
1.73
1.85
1.82
1.77
1.76
1.76
1.86
1.88
1.83
1.81
1.79
1.84
1.95
1.91
1.90
1.90
1.91
2.05
2.02
2.00
1.99
1.97
2.08
2.12
2.09
2.09
2.05
2.11
2.21
2.19
2.17
2.16
2.18
2.33
2.29
2.26
2.24
2.22
2.32
2.35
2.30
2.28
2.24
2.30
2.39
2.34
2.32
2.30
2.31
2.41
2.39
2.35
2.33
2.30
2.41
2.43
2.40
2.39
2.34
2.38
2.47
2.42
2.40
2.38
2.37
2.46
2.42
2.38
2.36
2.33
2.41
2.42
2.37
2.35
2.31
2.35
2.42
2.37
2.33
2.30
2.29
2.39
2.35
2.31
2.29
2.27
2.35
2.35
2.28
2.25
2.20
2.24
2.31
2.25
2.22
2.19
2.17
2.27
2.23
2.19
2.14
2.12
2.20
2.20
2.14
2.10
2.06
2.10
2.16
2.10
2.05
2.02
2.01
2.10
2.05
2.01
1.96
1.96
2.03
2.03
1.98
1.94
1.92
1.94
2.00
1.94
1.89
1.87
1.87
1.95
1.91
1.85
1.80
1.80
1.88
1.89
1.83
1.78
1.77
1.80
1.86
1.80
1.75
1.74
1.74
1.83
1.79
1.74
1.70
1.70
1.77
1.76
1.71
1.66
1.65
1.68
1.74
1.69
1.63
1.62
1.61
1.69
1.65
1.59
1.54
1.55
1.62
1.62
1.56
1.51
1.51
1.53
1.58
1.53
1.48
1.47
1.47
1.54
1.51
1.45
1.40
1.43
1.49
1.48
1.43
1.38
1.40
1.41
1.46
1.43
1.38
1.38
1.39
1.48
1.46
1.41
1.35
1.39
1.49
1.52
1.47
1.41
1.47
1.46
1.49
1.45
1.40
1.40
1.41
1.46
1.44
1.39
1.34
1.38
1.43
1.44
1.40
1.37
1.41
1.39
1.42
1.40
1.35
1.36
1.36
1.42
1.40
1.35
1.31
1.38
1.41
1.40
1.37
1.34
1.34
1.49
1.60
1.61
1.62
1.66
1.67
1.73
1.69
1.67
1.63
1.64
1.86
2.09
2.15
2.11
2.29
2.28
2.24
2.17
2.11
2.08
2.06
2.02
1.96
1.90
1.87
1.96
1.95
1.91
1.86
1.82
1.93
2.00
2.17
2.15
2.23
2.28
2.28
2.22
2.28
2.32
2.24
2.31
2.28
2.27
2.27
2.24
2.29
2.23
2.21
2.31
2.39
2.51
2.53
2.49
2.51
2.61
2.67
2.84
2.81
2.81
2.88
2.96
3.11
3.09
3.02
3.02
2.91
2.90
3.03
3.03
3.13
3.21
3.26
3.37
3.31
3.26
3.35
3.48
3.66
3.64
3.57
3.61
3.64
3.71
3.67
3.55
3.52
3.50
3.56
3.68
3.59
3.50
3.51
3.53
3.70
3.63
3.55
3.62
3.60
3.66
3.60
3.52
3.61
3.70
3.71
3.81
3.70
3.58
3.51
3.46
3.60
3.60
3.52
3.55
3.56
3.61
3.63
3.53
3.53
3.50
3.46
3.55
3.47
3.40
3.37
3.39
3.50
3.41
3.33
3.30
3.32
3.40
3.41
3.31
3.31
3.32
3.31
3.38
3.29
3.23
3.23
3.20
3.27
3.20
3.12
3.13
3.12
3.16
3.14
3.04
3.03
3.03
3.02
3.09
3.02
2.96
2.97
2.95
3.03
2.95
2.88
2.86
2.83
2.89
2.88
2.81
2.79
2.78
2.75
2.80
2.73
2.66
2.65
2.61
2.63
2.56
2.52
2.47
2.40
2.37
2.34
2.41
2.37
2.30
2.25
2.22
2.29
2.29
2.20
2.15
2.12
2.13
2.19
2.13
2.06
2.04
2.02
2.10
2.05
1.99
1.93
1.94
1.99
2.00
1.94
1.89
1.89
1.89
1.95
1.89
1.83
1.82
1.82
1.92
1.88
1.81
1.75
1.76
1.84
1.86
1.79
1.75
1.75
1.77
1.86
1.80
1.74
1.74
1.74
1.83
1.80
1.74
1.72
1.72
1.80
1.83
1.78
1.75
1.74
1.76
1.85
1.79
1.75
1.75
1.75
1.85
1.82
1.79
1.76
1.75
1.86
1.90
1.84
1.82
1.80
1.84
1.95
1.91
1.90
1.88
1.90
2.02
2.00
1.98
1.96
1.94
2.04
2.08
2.04
2.04
2.00
2.05
2.16
2.12
2.10
2.09
2.09
2.19
2.18
2.18
2.16
2.14
2.24
2.27
2.22
2.19
2.16
2.20
2.29
2.25
2.22
2.21
2.20
2.31
2.28
2.24
2.22
2.19
2.29
2.31
2.26
2.24
2.20
2.24
2.32
2.27
2.24
2.22
2.22
2.34
2.31
2.27
2.26
2.24
2.32
2.34
2.27
2.25
2.21
2.24
2.33
2.26
2.23
2.20
2.18
2.28
2.24
2.19
2.16
2.14
2.22
2.23
2.18
2.16
2.11
2.15
2.23
2.17
2.14
2.12
2.10
2.20
2.16
2.11
2.07
2.04
2.12
2.13
2.06
2.03
2.00
2.07
2.17
2.10
2.07
2.05
2.04
2.12
2.06
2.01
1.96
1.94
2.04
2.05
1.98
1.94
1.92
1.95
2.01
1.95
1.90
1.88
1.88
1.97
1.92
1.87
1.82
1.82
1.88
1.89
1.83
1.78
1.77
1.78
1.86
1.80
1.75
1.75
1.74
1.82
1.78
1.72
1.67
1.67
1.74
1.74
1.67
1.63
1.62
1.64
1.71
1.66
1.61
1.60
1.59
1.68
1.63
1.58
1.53
1.54
1.61
1.62
1.56
1.52
1.51
1.53
1.59
1.54
1.50
1.48
1.49
1.57
1.54
1.49
1.44
1.46
1.52
1.53
1.48
1.43
1.44
1.46
1.51
1.47
1.42
1.42
1.43
1.50
1.47
1.42
1.36
1.39
1.46
1.47
1.42
1.40
1.40
1.41
1.45
1.41
1.37
1.38
1.41
1.55
1.54
1.52
1.47
1.49
1.52
1.56
1.51
1.46
1.48
1.50
1.56
1.55
1.51
1.50
1.59
1.81
1.82
1.94
1.98
2.04
2.05
2.08
2.01
2.00
2.11
2.08
2.18
2.18
2.16
2.16
2.17
2.12
2.08
2.00
1.95
1.98
2.05
2.07
2.04
2.15
2.36
2.32
2.28
2.25
2.20
2.19
2.20
2.28
2.35
2.53
2.51
2.83
2.85
2.83
2.81
2.84
2.96
2.93
2.88
2.83
2.82
2.80
2.75
2.67
2.69
2.80
2.81
2.95
2.92
2.84
2.87
2.91
3.00
2.95
2.93
2.99
2.98
3.04
3.00
3.01
3.01
3.22
3.35
3.45
3.37
3.31
3.38
3.51
3.68
3.67
3.58
3.61
3.67
3.76
3.79
3.69
3.69
3.68
3.64
3.71
3.65
3.54
3.57
3.65
3.77
3.72
3.65
3.68
3.69
3.71
3.66
3.57
3.55
3.61
3.68
3.79
3.71
3.65
3.68
3.68
3.76
3.70
3.60
3.61
3.60
3.65
3.64
3.53
3.51
3.50
3.48
3.58
3.50
3.42
3.39
3.37
3.47
3.42
3.32
3.33
3.31
3.35
3.33
3.23
3.21
3.20
3.16
3.23
3.13
3.06
3.04
3.01
3.05
2.97
2.91
2.86
2.82
2.82
2.78
2.78
2.70
2.61
2.52
2.51
2.54
2.54
2.45
2.38
2.36
2.34
2.39
2.32
2.26
2.23
2.22
2.30
2.24
2.17
2.09
2.09
2.13
2.11
2.03
1.96
1.96
1.96
2.02
1.96
1.90
1.88
1.87
1.93
1.88
1.81
1.75
1.77
1.80
1.80
1.74
1.68
1.69
1.69
1.75
1.70
1.64
1.62
1.63
1.71
1.68
1.62
1.57
1.58
1.66
1.66
1.61
1.55
1.56
1.58
1.64
1.60
1.54
1.54
1.54
1.62
1.60
1.54
1.49
1.51
1.56
1.59
1.53
1.50
1.51
1.52
1.60
1.55
1.51
1.51
1.52
1.63
1.60
1.56
1.54
1.54
1.63
1.66
1.62
1.61
1.60
1.66
1.77
1.74
1.73
1.73
1.74
1.87
1.85
1.84
1.83
1.82
1.93
1.97
1.94
1.94
1.91
1.96
2.06
2.02
2.01
2.00
1.99
2.12
2.10
2.07
2.06
2.04
2.15
2.18
2.12
2.11
2.07
2.12
2.21
2.16
2.13
2.11
2.10
2.21
2.19
2.16
2.14
2.10
2.19
2.23
2.17
2.15
2.12
2.15
2.23
2.17
2.15
2.12
2.11
2.21
2.19
2.17
2.15
2.12
2.20
2.22
2.15
2.13
2.11
2.12
2.19
2.14
2.10
2.08
2.06
2.15
2.11
2.06
2.02
2.01
2.07
2.09
2.03
2.01
1.98
1.99
2.05
1.99
1.95
1.93
1.92
2.01
1.97
1.92
1.90
1.88
1.95
1.96
1.89
1.85
1.83
1.85
1.92
1.86
1.82
1.80
1.78
1.87
1.84
1.78
1.75
1.74
1.81
1.83
1.77
1.74
1.74
1.76
1.83
1.77
1.74
1.72
1.71
1.79
1.75
1.70
1.66
1.67
1.73
1.74
1.69
1.64
1.64
1.66
1.73
1.68
1.63
1.62
1.62
1.70
1.67
1.61
1.57
1.58
1.64
1.64
1.59
1.55
1.54
1.57
1.64
1.59
1.54
1.53
1.53
1.62
1.59
1.53
1.49
1.50
1.55
1.56
1.51
1.47
1.46
1.48
1.55
1.51
1.46
1.45
1.45
1.52
1.49
1.44
1.39
1.41
1.47
1.47
1.43
1.39
1.39
1.41
1.47
1.43
1.38
1.37
1.38
1.46
1.43
1.38
1.33
1.35
1.41
1.42
1.38
1.33
1.34
1.36
1.41
1.38
1.32
1.32
1.33
1.40
1.37
1.33
1.28
1.32
1.35
1.36
1.33
1.29
1.30
1.32
1.36
1.35
1.31
1.31
1.33
1.42
1.40
1.35
1.31
1.36
1.45
1.55
1.52
1.48
1.49
1.53
1.60
1.55
1.51
1.51
1.61
1.78
1.80
1.90
1.90
1.93
2.00
2.09
2.02
1.98
2.02
1.99
1.96
1.96
1.91
1.90
1.89
1.86
1.84
1.80
1.78
1.83
1.88
1.94
2.07
2.08
2.11
2.07
2.06
2.17
2.17
2.18
2.19
2.21
2.17
2.16
2.13
2.16
2.11
2.17
2.25
2.27
2.33
2.33
2.41
2.41
2.46
2.54
2.56
2.50
2.47
2.47
2.55
2.70
2.64
2.60
2.58
2.49
2.64
2.60
2.56
2.68
2.78
2.92
2.99
2.91
2.94
2.89
2.84
2.93
2.90
2.87
2.98
3.07
3.23
3.21
3.11
3.11
3.18
3.30
3.36
3.27
3.28
3.36
3.37
3.50
3.45
3.37
3.39
3.36
3.40
3.30
3.23
3.32
3.41
3.51
3.55
3.46
3.41
3.46
3.48
3.59
3.51
3.44
3.47
3.48
3.56
3.51
3.42
3.45
3.46
3.50
3.48
3.38
3.39
3.41
3.42
3.51
3.43
3.36
3.38
3.38
3.46
3.39
3.29
3.29
3.26
3.32
3.33
3.23
3.22
3.23
3.24
3.33
3.26
3.18
3.18
3.16
3.23
3.15
3.07
3.05
3.01
2.95
2.90
2.93
2.85
2.75
2.67
2.62
2.61
2.62
2.53
2.44
2.43
2.39
2.42
2.34
2.27
2.24
2.20
2.24
2.18
2.12
2.05
2.07
2.07
2.05
2.00
1.93
1.94
1.92
1.95
1.90
1.83
1.80
1.79
1.83
1.79
1.73
1.67
1.69
1.72
1.73
1.68
1.62
1.63
1.62
1.68
1.63
1.58
1.57
1.57
1.63
1.61
1.55
1.51
1.53
1.59
1.63
1.57
1.53
1.53
1.56
1.65
1.60
1.56
1.56
1.56
1.68
1.67
1.63
1.62
1.61
1.71
1.76
1.73
1.74
1.73
1.76
1.86
1.82
1.80
1.81
1.81
1.91
1.89
1.85
1.84
1.82
1.91
1.97
1.93
1.92
1.90
1.93
2.03
2.00
1.98
1.98
1.97
2.08
2.06
2.05
2.05
2.03
2.10
2.14
2.10
2.08
2.05
2.08
2.17
2.12
2.09
2.07
2.06
2.17
2.14
2.10
2.07
2.04
2.13
2.17
2.11
2.09
2.06
2.09
2.17
2.12
2.09
2.07
2.06
2.17
2.16
2.11
2.08
2.06
2.13
2.16
2.11
2.08
2.06
2.08
2.16
2.09
2.05
2.04
2.02
2.11
2.07
2.02
1.99
1.97
2.04
2.08
2.03
2.01
1.98
2.01
2.08
2.02
1.97
1.96
1.95
2.03
1.99
1.95
1.92
1.90
1.96
1.99
1.93
1.88
1.86
1.88
1.95
1.89
1.85
1.84
1.83
1.91
1.88
1.83
1.78
1.77
1.83
1.86
1.80
1.76
1.75
1.76
1.83
1.77
1.74
1.72
1.72
1.88
1.85
1.81
1.76
1.75
1.81
1.84
1.77
1.73
1.72
1.74
1.82
1.77
1.74
1.72
1.72
1.80
1.77
1.72
1.66
1.67
1.74
1.76
1.71
1.66
1.65
1.66
1.72
1.66
1.61
1.59
1.60
1.67
1.64
1.58
1.54
1.54
1.60
1.63
1.58
1.53
1.53
1.55
1.61
1.56
1.51
1.50
1.50
1.58
1.55
1.51
1.47
1.49
1.54
1.56
1.52
1.47
1.47
1.48
1.54
1.50
1.45
1.43
1.43
1.51
1.49
1.43
1.39
1.40
1.45
1.47
1.42
1.38
1.38
1.41
1.48
1.44
1.39
1.37
1.41
1.60
1.62
1.62
1.60
1.61
1.64
1.63
1.61
1.56
1.56
1.56
1.60
1.58
1.53
1.53
1.54
1.57
1.54
1.50
1.45
1.49
1.51
1.51
1.48
1.42
1.42
1.46
1.59
1.59
1.60
1.60
1.63
1.77
1.75
1.77
1.79
1.83
2.02
2.08
2.08
2.08
2.15
2.13
2.09
2.08
2.05
2.03
2.12
2.30
2.32
2.35
2.29
2.29
2.41
2.52
2.44
2.45
2.58
2.59
2.54
2.52
2.51
2.57
2.55
2.62
2.60
2.67
2.70
2.64
2.69
2.78
2.69
2.70
2.74
2.66
2.63
2.73
2.81
2.91
2.90
2.90
2.90
2.94
3.02
3.16
3.10
3.05
3.02
3.04
3.01
2.97
3.03
3.21
3.22
3.24
3.35
3.29
3.27
3.30
3.36
3.46
3.36
3.34
3.42
3.44
3.46
3.36
3.38
3.46
3.62
3.69
3.74
3.66
3.64
3.64
3.68
3.82
3.77
3.72
3.76
3.77
3.86
3.77
3.67
3.71
3.75
3.83
3.86
3.76
3.75
3.77
3.77
3.82
3.68
3.63
3.72
3.73
3.81
3.75
3.66
3.67
3.66
3.70
3.71
3.60
3.60
3.63
3.62
3.70
3.61
3.53
3.58
3.57
3.64
3.58
3.48
3.47
3.43
3.42
3.40
3.30
3.20
3.10
3.00
2.99
2.94
2.90
2.81
2.70
2.68
2.63
2.65
2.57
2.48
2.43
2.41
2.43
2.37
2.30
2.21
2.21
2.19
2.18
2.14
2.05
2.05
2.02
2.03
1.97
1.91
1.89
1.88
1.92
1.88
1.83
1.76
1.79
1.80
1.81
1.77
1.70
1.72
1.71
1.75
1.71
1.64
1.63
1.62
1.68
1.64
1.59
1.53
1.55
1.58
1.61
1.55
1.51
1.51
1.52
1.58
1.53
1.49
1.48
1.47
1.55
1.52
1.47
1.43
1.43
1.49
1.53
1.48
1.46
1.45
1.48
1.59
1.56
1.53
1.52
1.52
1.63
1.62
1.60
1.57
1.56
1.64
1.70
1.66
1.66
1.64
1.68
1.78
1.74
1.75
1.75
1.77
1.90
1.87
1.83
1.81
1.79
1.87
1.92
1.87
1.85
1.84
1.88
1.99
1.95
1.92
1.92
1.91
2.00
1.99
1.95
1.93
1.91
1.97
2.02
1.97
1.96
1.94
1.96
2.03
1.97
1.93
1.93
1.91
2.01
1.98
1.94
1.91
1.89
1.95
1.99
1.93
1.89
1.87
1.89
1.97
1.92
1.87
1.86
1.84
1.94
1.92
1.86
1.83
1.80
1.88
1.90
1.84
1.81
1.80
1.81
1.90
1.84
1.79
1.77
1.76
1.87
1.85
1.79
1.74
1.73
1.78
1.82
1.75
1.71
1.70
1.72
1.79
1.74
1.70
1.68
1.68
1.76
1.73
1.68
1.64
1.63
1.68
1.71
1.66
1.63
1.63
1.64
1.71
1.65
1.61
1.59
1.59
1.66
1.64
1.58
1.53
1.53
1.58
1.61
1.56
1.52
1.51
1.52
1.59
1.54
1.50
1.49
1.48
1.56
1.53
1.47
1.43
1.44
1.49
1.52
1.47
1.42
1.42
1.44
1.52
1.49
1.43
1.42
1.42
1.49
1.47
1.42
1.37
1.38
1.43
1.45
1.41
1.36
1.37
1.38
1.45
1.41
1.37
1.35
1.36
1.43
1.41
1.37
1.32
1.34
1.38
1.41
1.37
1.32
1.33
1.35
1.41
1.38
1.33
1.32
1.32
1.38
1.37
1.32
1.28
1.30
1.34
1.37
1.34
1.29
1.30
1.32
1.38
1.34
1.30
1.30
1.30
1.37
1.35
1.31
1.26
1.30
1.33
1.35
1.32
1.32
1.33
1.33
1.37
1.35
1.39
1.44
1.43
1.52
1.51
1.57
1.63
1.64
1.61
1.66
1.73
1.72
1.75
1.72
1.72
1.70
1.66
1.67
1.68
1.69
1.66
1.62
1.57
1.61
1.62
1.69
1.69
1.70
1.70
1.66
1.63
1.64
1.60
1.59
1.61
1.73
1.73
1.67
1.64
1.64
1.69
1.82
1.86
1.82
1.94
1.93
1.96
1.93
1.94
1.95
2.00
2.18
2.17
2.22
2.22
2.33
2.28
2.26
2.19
2.12
2.17
2.14
2.18
2.20
2.18
2.28
2.39
2.35
2.41
2.47
2.44
2.47
2.39
2.37
2.39
2.37
2.42
2.41
2.52
2.52
2.63
2.77
2.74
2.67
2.68
2.62
2.54
2.73
2.72
2.65
2.79
2.95
3.09
3.10
3.06
3.14
3.17
3.26
3.32
3.23
3.16
3.18
3.25
3.33
3.22
3.20
3.27
3.33
3.41
3.38
3.35
3.38
3.37
3.48
3.53
3.46
3.43
3.51
3.57
3.72
3.68
3.60
3.51
3.41
3.59
3.65
3.58
3.63
3.66
3.72
3.76
3.67
3.66
3.67
3.67
3.75
3.68
3.62
3.65
3.66
3.75
3.70
3.60
3.55
3.53
3.59
3.66
3.57
3.56
3.54
3.51
3.63
3.55
3.48
3.50
3.50
3.59
3.56
3.47
3.48
3.49
3.53
3.55
3.45
3.41
3.41
3.38
3.44
3.32
3.25
3.24
3.14
3.09
3.03
3.03
2.93
2.82
2.75
2.72
2.73
2.66
2.57
2.47
2.48
2.45
2.44
2.36
2.27
2.25
2.22
2.24
2.18
2.10
2.07
2.05
2.09
2.04
1.97
1.90
1.92
1.92
1.93
1.88
1.80
1.82
1.80
1.86
1.82
1.75
1.73
1.74
1.79
1.77
1.72
1.65
1.68
1.68
1.71
1.66
1.60
1.61
1.61
1.67
1.63
1.56
1.55
1.55
1.63
1.61
1.56
1.51
1.53
1.55
1.60
1.54
1.49
1.49
1.50
1.57
1.52
1.47
1.46
1.46
1.54
1.52
1.47
1.43
1.45
1.49
1.54
1.48
1.44
1.44
1.46
1.55
1.51
1.46
1.45
1.45
1.54
1.53
1.49
1.46
1.46
1.54
1.62
1.56
1.53
1.53
1.54
1.63
1.58
1.56
1.55
1.55
1.67
1.67
1.64
1.62
1.61
1.70
1.77
1.72
1.70
1.70
1.73
1.83
1.79
1.77
1.77
1.76
1.87
1.85
1.81
1.80
1.78
1.86
1.93
1.88
1.86
1.84
1.87
1.98
1.95
1.91
1.89
1.88
1.98
1.97
1.93
1.91
1.88
1.95
2.00
1.95
1.94
1.91
1.93
2.02
1.97
1.94
1.94
1.92
2.01
1.99
1.95
1.92
1.89
1.95
1.99
1.94
1.91
1.89
1.90
1.99
1.95
1.92
1.90
1.88
1.98
1.96
1.94
1.91
1.90
1.94
1.97
1.91
1.87
1.85
1.86
1.95
1.89
1.84
1.83
1.81
1.90
1.87
1.82
1.78
1.76
1.82
1.87
1.80
1.75
1.74
1.76
1.83
1.78
1.74
1.72
1.71
1.79
1.77
1.72
1.69
1.68
1.74
1.77
1.72
1.68
1.68
1.68
1.75
1.70
1.64
1.62
1.62
1.70
1.67
1.61
1.57
1.56
1.62
1.66
1.60
1.56
1.56
1.57
1.65
1.60
1.55
1.54
1.53
1.62
1.59
1.53
1.50
1.50
1.54
1.57
1.52
1.48
1.47
1.49
1.55
1.51
1.47
1.45
1.45
1.54
1.52
1.47
1.42
1.42
1.48
1.52
1.47
1.41
1.42
1.44
1.52
1.48
1.48
1.48
1.48
1.53
1.52
1.50
1.46
1.49
1.52
1.57
1.56
1.60
1.61
1.57
1.55
1.55
1.52
1.51
1.52
1.56
1.54
1.50
1.45
1.46
1.50
1.51
1.50
1.45
1.47
1.46
1.50
1.47
1.42
1.40
1.40
1.46
1.46
1.44
1.39
1.40
1.56
1.67
1.63
1.67
1.70
1.67
1.76
1.72
1.67
1.74
1.76
1.79
1.75
1.70
1.63
1.63
1.69
1.72
1.72
1.69
1.70
1.73
1.85
1.82
1.78
1.83
1.85
1.86
1.84
1.80
1.73
1.72
1.80
1.87
1.83
1.82
1.89
1.85
1.82
1.86
1.86
1.89
1.94
1.93
1.89
1.85
1.81
1.87
1.82
1.79
1.76
1.71
1.78
1.75
1.73
1.79
1.83
1.80
1.78
1.78
1.87
1.93
1.92
1.96
1.91
1.89
1.92
1.94
2.02
1.98
1.95
1.97
1.96
1.98
2.02
1.98
2.00
2.03
2.06
2.18
2.14
2.15
2.25
2.32
2.50
2.52
2.45
2.46
2.47
2.59
2.68
2.62
2.63
2.72
2.73
2.89
2.83
2.79
2.84
2.88
2.98
3.00
2.96
3.01
3.04
3.11
3.17
3.09
3.07
3.07
3.05
3.14
3.10
3.08
3.14
3.15
3.28
3.28
3.21
3.25
3.27
3.33
3.36
3.27
3.26
3.28
3.26
3.38
3.30
3.23
3.27
3.28
3.37
3.33
3.23
3.24
3.26
3.32
3.35
3.26
3.24
3.25
3.24
3.32
3.22
3.14
3.13
3.09
3.14
3.08
3.01
2.92
2.82
2.75
2.70
2.73
2.66
2.56
2.48
2.45
2.45
2.46
2.38
2.29
2.26
2.24
2.28
2.20
2.12
2.08
2.06
2.11
2.07
2.00
1.92
1.94
1.95
1.96
1.91
1.83
1.83
1.82
1.88
1.83
1.76
1.74
1.73
1.78
1.75
1.70
1.64
1.65
1.67
1.69
1.64
1.58
1.59
1.59
1.66
1.61
1.55
1.53
1.54
1.60
1.58
1.52
1.47
1.50
1.53
1.57
1.52
1.48
1.50
1.51
1.58
1.54
1.49
1.47
1.48
1.56
1.55
1.49
1.44
1.47
1.50
1.54
1.49
1.46
1.46
1.47
1.56
1.51
1.47
1.48
1.47
1.57
1.57
1.52
1.50
1.50
1.56
1.63
1.58
1.56
1.56
1.60
1.69
1.65
1.63
1.63
1.62
1.74
1.74
1.71
1.69
1.67
1.77
1.85
1.79
1.77
1.75
1.79
1.89
1.86
1.84
1.84
1.83
1.96
1.96
1.93
1.90
1.88
1.96
2.01
1.96
1.95
1.94
1.96
2.06
2.01
1.98
1.97
1.96
2.06
2.04
2.00
1.98
1.95
2.02
2.08
2.03
2.00
1.98
2.01
2.11
2.05
2.02
2.02
2.00
2.09
2.06
2.01
1.98
1.95
2.01
2.06
2.00
1.97
1.96
1.97
2.06
2.00
1.96
1.94
1.92
2.02
1.98
1.96
1.96
1.93
1.98
2.01
1.95
1.90
1.88
1.89
1.96
1.90
1.87
1.85
1.83
1.93
1.90
1.85
1.80
1.79
1.84
1.88
1.81
1.77
1.75
1.77
1.84
1.79
1.74
1.73
1.72
1.80
1.77
1.72
1.67
1.66
1.71
1.74
1.69
1.65
1.65
1.66
1.73
1.67
1.62
1.61
1.60
1.69
1.66
1.60
1.55
1.56
1.61
1.64
1.59
1.54
1.54
1.56
1.63
1.58
1.52
1.52
1.51
1.59
1.57
1.51
1.47
1.47
1.52
1.55
1.50
1.46
1.46
1.46
1.52
1.49
1.43
1.42
1.42
1.50
1.48
1.42
1.38
1.39
1.44
1.47
1.42
1.37
1.37
1.39
1.46
1.41
1.37
1.35
1.35
1.43
1.41
1.36
1.31
1.33
1.38
1.40
1.36
1.32
1.32
1.34
1.40
1.37
1.32
1.31
1.32
1.39
1.37
1.33
1.28
1.30
1.35
1.38
1.34
1.30
1.31
1.33
1.39
1.36
1.31
1.30
1.31
1.40
1.39
1.34
1.32
1.33
1.37
1.39
1.36
1.33
1.32
1.42
1.57
1.53
1.48
1.50
1.53
1.62
1.61
1.61
1.63
1.68
1.74
1.80
1.73
1.67
1.69
1.64
1.63
1.62
1.58
1.56
1.56
1.60
1.56
1.56
1.58
1.59
1.59
1.58
1.57
1.52
1.52
1.50
1.55
1.54
1.52
1.52
1.53
1.54
1.49
1.47
1.49
1.48
1.52
1.51
1.52
1.48
1.52
1.50
1.49
1.54
1.61
1.64
1.64
1.62
1.66
1.71
1.76
1.90
1.86
1.83
1.79
1.74
1.86
1.88
2.02
1.97
1.96
2.11
2.20
2.25
2.31
2.43
2.48
2.59
2.51
2.45
2.41
2.44
2.56
2.56
2.63
2.63
2.69
2.83
2.91
2.86
2.90
3.05
3.10
3.25
3.22
3.17
3.23
3.25
3.35
3.31
3.28
3.25
3.36
3.52
3.59
3.50
3.46
3.44
3.48
3.63
3.62
3.55
3.53
3.50
3.63
3.63
3.55
3.55
3.53
3.63
3.70
3.63
3.63
3.66
3.66
3.75
3.65
3.56
3.61
3.64
3.74
3.70
3.60
3.62
3.63
3.67
3.68
3.58
3.55
3.57
3.56
3.64
3.54
3.47
3.47
3.44
3.53
3.50
3.41
3.41
3.41
3.45
3.47
3.37
3.36
3.35
3.32
3.42
3.33
3.26
3.26
3.24
3.30
3.24
3.15
3.12
3.09
3.11
3.09
3.01
2.91
2.80
2.70
2.67
2.68
2.68
2.58
2.50
2.47
2.45
2.50
2.41
2.34
2.30
2.26
2.32
2.27
2.18
2.12
2.11
2.13
2.16
2.11
2.07
2.06
2.06
2.11
2.04
1.97
1.94
1.92
1.97
1.94
1.88
1.82
1.83
1.86
1.89
1.82
1.77
1.77
1.77
1.85
1.80
1.74
1.72
1.72
1.78
1.75
1.70
1.64
1.66
1.70
1.73
1.67
1.62
1.62
1.63
1.71
1.65
1.61
1.60
1.61
1.69
1.66
1.60
1.55
1.56
1.62
1.66
1.60
1.58
1.58
1.60
1.69
1.64
1.60
1.59
1.59
1.68
1.65
1.61
1.57
1.57
1.64
1.69
1.63
1.61
1.60
1.63
1.73
1.69
1.65
1.64
1.64
1.76
1.75
1.72
1.71
1.69
1.78
1.85
1.80
1.79
1.77
1.81
1.92
1.88
1.86
1.86
1.85
1.96
1.95
1.93
1.91
1.89
1.97
2.03
1.97
1.96
1.94
1.96
2.05
2.00
1.97
1.96
1.96
2.06
2.04
2.00
1.97
1.95
2.03
2.07
2.02
1.99
1.97
2.00
2.09
2.04
2.01
2.00
1.99
2.10
2.07
2.02
1.99
1.97
2.04
2.08
2.02
1.99
1.97
2.00
2.09
2.02
1.99
1.97
1.95
2.04
2.00
1.95
1.91
1.90
1.96
2.00
1.93
1.89
1.87
1.88
1.96
1.91
1.87
1.85
1.84
1.92
1.88
1.82
1.78
1.77
1.84
1.87
1.80
1.75
1.74
1.76
1.83
1.77
1.73
1.71
1.70
1.78
1.75
1.70
1.65
1.65
1.71
1.74
1.68
1.63
1.63
1.64
1.71
1.66
1.61
1.60
1.60
1.68
1.66
1.61
1.56
1.57
1.64
1.67
1.62
1.56
1.56
1.58
1.65
1.60
1.54
1.53
1.54
1.63
1.60
1.54
1.50
1.52
1.57
1.59
1.54
1.49
1.49
1.51
1.57
1.52
1.47
1.47
1.47
1.54
1.52
1.46
1.41
1.43
1.48
1.50
1.45
1.40
1.40
1.42
1.49
1.44
1.39
1.38
1.38
1.46
1.44
1.38
1.33
1.36
1.41
1.42
1.38
1.33
1.34
1.36
1.43
1.39
1.34
1.33
1.33
1.41
1.39
1.35
1.29
1.32
1.38
1.41
1.37
1.31
1.33
1.35
1.41
1.37
1.34
1.36
1.35
1.44
1.42
1.37
1.33
1.38
1.41
1.42
1.39
1.37
1.37
1.40
1.47
1.44
1.42
1.46
1.48
1.55
1.53
1.55
1.64
1.61
1.58
1.57
1.53
1.49
1.55
1.57
1.76
1.80
1.77
1.83
1.85
1.84
1.80
1.76
1.71
1.73
1.74
1.73
1.67
1.64
1.65
1.65
1.72
1.67
1.67
1.79
1.79
1.80
1.87
1.89
1.83
1.82
1.78
1.80
1.84
1.80
1.85
1.82
1.82
1.86
1.88
1.94
1.96
2.00
1.98
2.03
2.13
2.26
2.22
2.19
2.23
2.19
2.28
2.24
2.20
2.26
2.30
2.38
2.47
2.43
2.50
2.57
2.62
2.75
2.71
2.65
2.74
2.78
2.93
2.97
2.92
2.93
2.91
3.03
3.10
3.02
3.07
3.15
3.12
3.17
3.14
3.10
3.17
3.26
3.34
3.29
3.25
3.31
3.37
3.48
3.53
3.46
3.46
3.49
3.51
3.60
3.52
3.47
3.51
3.52
3.62
3.57
3.48
3.46
3.39
3.41
3.47
3.40
3.36
3.40
3.46
3.55
3.46
3.38
3.41
3.45
3.55
3.49
3.39
3.40
3.39
3.43
3.44
3.34
3.32
3.32
3.32
3.41
3.32
3.25
3.26
3.26
3.33
3.27
3.18
3.18
3.17
3.21
3.20
3.11
3.06
3.05
3.03
3.08
3.00
2.92
2.91
2.86
2.90
2.82
2.76
2.67
2.58
2.53
2.49
2.55
2.48
2.39
2.33
2.31
2.35
2.35
2.26
2.20
2.18
2.18
2.26
2.19
2.11
2.08
2.06
2.13
2.09
2.01
1.96
1.96
1.99
2.00
1.93
1.87
1.86
1.85
1.92
1.85
1.79
1.77
1.76
1.84
1.80
1.74
1.67
1.69
1.73
1.74
1.68
1.63
1.63
1.64
1.71
1.66
1.61
1.59
1.59
1.68
1.65
1.60
1.56
1.58
1.63
1.66
1.60
1.54
1.56
1.57
1.64
1.59
1.54
1.53
1.53
1.62
1.59
1.53
1.49
1.51
1.57
1.59
1.54
1.49
1.51
1.52
1.61
1.56
1.51
1.51
1.52
1.62
1.59
1.54
1.51
1.52
1.58
1.62
1.57
1.54
1.54
1.55
1.63
1.58
1.54
1.54
1.53
1.63
1.60
1.55
1.52
1.52
1.61
1.64
1.58
1.56
1.55
1.58
1.66
1.61
1.58
1.56
1.57
1.68
1.66
1.63
1.61
1.61
1.70
1.74
1.69
1.67
1.66
1.71
1.80
1.76
1.73
1.72
1.72
1.82
1.80
1.75
1.73
1.72
1.81
1.85
1.79
1.77
1.75
1.78
1.87
1.82
1.80
1.79
1.78
1.88
1.85
1.80
1.77
1.76
1.85
1.88
1.82
1.79
1.78
1.81
1.90
1.85
1.80
1.79
1.79
1.89
1.85
1.80
1.77
1.77
1.84
1.86
1.79
1.76
1.74
1.77
1.84
1.79
1.74
1.73
1.73
1.82
1.78
1.72
1.69
1.69
1.76
1.77
1.71
1.67
1.66
1.68
1.74
1.69
1.64
1.63
1.62
1.71
1.68
1.62
1.57
1.58
1.65
1.66
1.63
1.63
1.63
1.66
1.73
1.67
1.62
1.61
1.61
1.70
1.66
1.62
1.59
1.60
1.67
1.68
1.62
1.57
1.57
1.59
1.65
1.60
1.55
1.54
1.55
1.63
1.59
1.54
1.50
1.51
1.57
1.58
1.52
1.48
1.49
1.51
1.57
1.52
1.47
1.47
1.47
1.55
1.52
1.47
1.42
1.45
1.51
1.52
1.47
1.42
1.42
1.45
1.51
1.46
1.42
1.41
1.42
1.50
1.47
1.42
1.38
1.40
1.48
1.50
1.46
1.44
1.44
1.46
1.52
1.49
1.48
1.49
1.51
1.60
1.57
1.52
1.48
1.56
1.55
1.54
1.50
1.47
1.47
1.50
1.52
1.52
1.48
1.47
1.50
1.62
1.61
1.56
1.51
1.56
1.58
1.57
1.54
1.53
1.57
1.53
1.57
1.54
1.49
1.50
1.52
1.71
1.70
1.65
1.60
1.63
1.61
1.58
1.55
1.54
1.64
1.60
1.58
1.59
1.54
1.55
1.54
1.52
1.54
1.58
1.64
1.76
1.74
1.73
1.71
1.65
1.79
1.76
1.78
1.80
1.77
1.78
1.77
1.75
1.74
1.72
1.77
1.86
1.88
1.93
1.99
1.97
2.07
2.06
2.03
2.08
2.09
2.16
2.21
2.18
2.21
2.23
2.27
2.39
2.35
2.34
2.44
2.49
2.62
2.61
2.54
2.55
2.63
2.79
2.76
2.70
2.75
2.81
2.87
3.02
3.00
2.97
3.03
3.05
3.17
3.12
3.05
3.11
3.16
3.25
3.21
3.11
3.15
3.12
3.14
3.29
3.26
3.21
3.15
3.15
3.20
3.38
3.36
3.43
3.48
3.58
3.60
3.50
3.50
3.51
3.51
3.58
3.49
3.42
3.44
3.43
3.51
3.44
3.35
3.37
3.36
3.41
3.41
3.30
3.27
3.28
3.29
3.37
3.28
3.20
3.23
3.23
3.31
3.24
3.16
3.17
3.15
3.19
3.17
3.08
3.04
3.00
2.97
3.04
2.96
2.88
2.85
2.81
2.79
2.75
2.78
2.68
2.59
2.55
2.51
2.58
2.51
2.43
2.36
2.34
2.39
2.39
2.30
2.24
2.22
2.21
2.28
2.21
2.14
2.13
2.11
2.19
2.14
2.06
2.00
2.01
2.04
2.03
1.96
1.90
1.90
1.90
1.95
1.89
1.83
1.81
1.80
1.88
1.83
1.77
1.71
1.73
1.78
1.78
1.72
1.66
1.67
1.67
1.72
1.66
1.60
1.59
1.59
1.67
1.63
1.57
1.51
1.53
1.59
1.59
1.54
1.49
1.51
1.52
1.59
1.55
1.52
1.52
1.52
1.62
1.59
1.53
1.49
1.51
1.57
1.57
1.52
1.50
1.52
1.53
1.61
1.56
1.52
1.51
1.52
1.61
1.58
1.52
1.47
1.50
1.57
1.59
1.54
1.50
1.50
1.54
1.63
1.58
1.54
1.54
1.55
1.65
1.62
1.58
1.56
1.57
1.67
1.71
1.69
1.68
1.66
1.72
1.82
1.79
1.78
1.78
1.79
1.92
1.91
1.88
1.87
1.86
1.97
2.02
1.99
1.98
1.95
2.00
2.08
2.04
2.02
2.00
2.00
2.11
2.08
2.05
2.02
2.00
2.11
2.13
2.09
2.06
2.02
2.07
2.15
2.10
2.07
2.05
2.05
2.16
2.11
2.08
2.05
2.03
2.13
2.15
2.09
2.05
2.03
2.06
2.13
2.07
2.03
2.02
2.02
2.11
2.07
2.02
1.99
1.97
2.07
2.08
2.01
1.97
1.95
1.97
2.04
1.99
1.95
1.94
1.93
2.02
1.98
1.94
1.91
1.90
1.97
1.98
1.92
1.88
1.86
1.88
1.96
1.90
1.86
1.85
1.86
1.96
1.91
1.85
1.79
1.79
1.87
1.86
1.80
1.75
1.74
1.77
1.85
1.79
1.73
1.71
1.71
1.79
1.74
1.69
1.64
1.64
1.71
1.71
1.65
1.61
1.59
1.62
1.69
1.63
1.59
1.57
1.57
1.66
1.63
1.57
1.52
1.53
1.60
1.60
1.55
1.51
1.51
1.53
1.59
1.54
1.50
1.50
1.50
1.57
1.54
1.50
1.47
1.48
1.62
1.72
1.78
1.78
1.88
1.83
1.82
1.81
1.75
1.74
1.72
1.75
1.73
1.68
1.62
1.65
1.67
1.65
1.63
1.57
1.60
1.58
1.63
1.57
1.52
1.52
1.52
1.60
1.58
1.60
1.59
1.58
1.64
1.70
1.65
1.66
1.77
1.76
1.80
1.77
1.73
1.73
1.73
1.86
1.90
1.85
1.81
1.87
1.85
1.80
1.78
1.72
1.73
1.75
1.80
1.81
1.79
1.85
1.85
1.86
1.80
1.76
1.72
1.79
1.76
1.73
1.69
1.65
1.69
1.71
1.78
1.75
1.72
1.81
1.84
1.83
1.93
1.96
1.94
2.05
2.09
2.07
2.12
2.10
2.17
2.10
2.07
2.03
1.98
2.04
2.12
2.09
2.04
2.00
1.98
2.11
2.10
2.14
2.25
2.29
2.42
2.37
2.34
2.38
2.47
2.59
2.64
2.63
2.71
2.77
2.80
2.92
2.87
2.82
2.80
2.79
2.95
2.94
2.87
2.97
3.07
3.22
3.25
3.15
3.10
3.10
3.15
3.27
3.21
3.20
3.23
3.26
3.39
3.34
3.27
3.29
3.25
3.30
3.30
3.23
3.23
3.27
3.32
3.45
3.38
3.34
3.37
3.37
3.40
3.28
3.22
3.29
3.32
3.33
3.25
3.16
3.25
3.29
3.34
3.44
3.36
3.30
3.31
3.29
3.37
3.28
3.20
3.20
3.20
3.26
3.25
3.15
3.14
3.13
3.13
3.20
3.11
3.06
3.08
3.06
3.14
3.07
3.01
3.01
2.99
3.03
3.00
2.92
2.89
2.86
2.82
2.85
2.78
2.71
2.63
2.55
2.53
2.50
2.53
2.45
2.38
2.34
2.31
2.38
2.31
2.23
2.16
2.16
2.20
2.18
2.11
2.04
2.03
2.03
2.06
1.99
1.95
1.93
1.92
1.98
1.93
1.86
1.79
1.81
1.87
1.87
1.80
1.75
1.76
1.77
1.82
1.76
1.70
1.69
1.70
1.77
1.73
1.69
1.64
1.67
1.73
1.73
1.68
1.63
1.64
1.66
1.72
1.67
1.61
1.61
1.61
1.70
1.66
1.60
1.55
1.57
1.63
1.63
1.57
1.53
1.53
1.55
1.62
1.57
1.53
1.52
1.53
1.63
1.59
1.54
1.50
1.51
1.59
1.60
1.56
1.55
1.53
1.58
1.64
1.59
1.55
1.54
1.54
1.66
1.63
1.59
1.56
1.55
1.66
1.69
1.64
1.63
1.61
1.67
1.75
1.71
1.70
1.70
1.70
1.81
1.79
1.79
1.77
1.76
1.88
1.92
1.89
1.87
1.85
1.91
2.00
1.97
1.96
1.96
1.97
2.08
2.05
2.02
2.01
2.00
2.09
2.11
2.08
2.07
2.03
2.09
2.17
2.13
2.10
2.09
2.09
2.19
2.17
2.14
2.11
2.10
2.20
2.21
2.16
2.14
2.10
2.15
2.22
2.17
2.14
2.13
2.13
2.24
2.20
2.16
2.13
2.11
2.19
2.20
2.16
2.12
2.08
2.12
2.18
2.13
2.09
2.07
2.06
2.17
2.13
2.09
2.07
2.04
2.12
2.12
2.06
2.04
2.01
2.03
2.09
2.03
2.00
1.98
1.98
2.07
2.03
1.97
1.94
1.93
2.01
1.99
1.94
1.90
1.88
1.91
1.96
1.90
1.85
1.84
1.85
1.93
1.88
1.83
1.78
1.79
1.86
1.86
1.81
1.78
1.76
1.80
1.86
1.80
1.75
1.74
1.74
1.81
1.76
1.71
1.66
1.67
1.74
1.74
1.68
1.63
1.62
1.65
1.71
1.65
1.60
1.59
1.59
1.68
1.63
1.58
1.54
1.55
1.65
1.64
1.61
1.58
1.58
1.61
1.67
1.62
1.56
1.55
1.55
1.64
1.60
1.57
1.53
1.54
1.62
1.61
1.55
1.51
1.52
1.54
1.58
1.54
1.50
1.49
1.50
1.57
1.54
1.48
1.43
1.45
1.52
1.51
1.47
1.42
1.43
1.46
1.51
1.47
1.41
1.42
1.42
1.49
1.46
1.41
1.36
1.39
1.47
1.48
1.44
1.39
1.43
1.43
1.47
1.44
1.39
1.40
1.39
1.45
1.42
1.38
1.34
1.37
1.44
1.44
1.43
1.39
1.41
1.43
1.49
1.45
1.43
1.47
1.47
1.52
1.49
1.44
1.39
1.42
1.49
1.47
1.45
1.41
1.44
1.49
1.57
1.54
1.50
1.52
1.52
1.56
1.56
1.52
1.52
1.55
1.67
1.68
1.67
1.63
1.68
1.66
1.66
1.63
1.58
1.59
1.57
1.61
1.61
1.60
1.56
1.58
1.72
1.73
1.80
1.76
1.77
1.72
1.74
1.74
1.81
1.84
1.90
1.91
1.99
2.01
1.99
2.06
2.02
1.99
1.96
1.96
1.97
1.92
1.94
2.00
2.07
2.30
2.35
2.31
2.25
2.18
2.17
2.27
2.31
2.31
2.50
2.54
2.56
2.49
2.52
2.67
2.74
2.76
2.74
2.67
2.76
2.83
2.89
3.01
2.96
2.88
2.84
2.86
2.93
2.85
2.85
3.04
3.09
3.20
3.22
3.14
3.19
3.24
3.27
3.37
3.33
3.30
3.37
3.40
3.52
3.47
3.39
3.42
3.44
3.52
3.51
3.41
3.43
3.44
3.46
3.48
3.39
3.33
3.37
3.44
3.58
3.50
3.42
3.41
3.46
3.56
3.55
3.45
3.44
3.44
3.47
3.53
3.45
3.40
3.41
3.40
3.50
3.42
3.33
3.34
3.33
3.40
3.37
3.27
3.26
3.25
3.24
3.28
3.19
3.13
3.12
3.09
3.15
3.04
2.98
2.96
2.91
2.94
2.89
2.85
2.77
2.67
2.59
2.57
2.60
2.57
2.49
2.43
2.42
2.40
2.44
2.36
2.29
2.26
2.25
2.32
2.24
2.18
2.13
2.14
2.17
2.15
2.07
1.99
2.00
2.00
2.03
1.96
1.89
1.88
1.87
1.92
1.87
1.81
1.75
1.76
1.80
1.78
1.73
1.66
1.68
1.69
1.73
1.68
1.63
1.63
1.63
1.70
1.66
1.60
1.56
1.58
1.66
1.66
1.60
1.57
1.58
1.58
1.65
1.59
1.55
1.54
1.55
1.64
1.60
1.56
1.52
1.53
1.62
1.63
1.57
1.55
1.53
1.58
1.66
1.62
1.60
1.59
1.61
1.73
1.69
1.67
1.65
1.65
1.76
1.78
1.74
1.73
1.71
1.77
1.86
1.81
1.79
1.78
1.80
1.91
1.89
1.86
1.84
1.83
1.93
1.95
1.90
1.88
1.85
1.92
2.00
1.96
1.95
1.93
1.94
2.05
2.02
1.98
1.97
1.96
2.06
2.07
2.03
2.01
1.97
2.03
2.10
2.04
2.00
1.99
1.99
2.09
2.05
2.01
1.98
1.98
2.07
2.07
2.05
2.04
2.01
2.06
2.14
2.09
2.04
2.02
2.03
2.14
2.08
2.05
2.04
2.02
2.10
2.09
2.03
1.98
1.95
1.99
2.04
1.99
1.95
1.93
1.93
2.01
1.96
1.91
1.88
1.87
1.95
1.94
1.88
1.87
1.84
1.87
1.93
1.87
1.83
1.81
1.81
1.89
1.84
1.79
1.75
1.75
1.85
1.84
1.78
1.73
1.72
1.75
1.80
1.74
1.71
1.70
1.71
1.79
1.74
1.69
1.66
1.66
1.74
1.72
1.66
1.61
1.61
1.65
1.71
1.66
1.61
1.60
1.61
1.68
1.63
1.58
1.54
1.55
1.62
1.61
1.56
1.52
1.52
1.54
1.60
1.56
1.51
1.51
1.52
1.61
1.57
1.51
1.47
1.48
1.55
1.53
1.48
1.43
1.44
1.46
1.52
1.47
1.42
1.41
1.41
1.49
1.44
1.39
1.36
1.37
1.44
1.44
1.38
1.34
1.34
1.38
1.42
1.38
1.34
1.34
1.35
1.42
1.39
1.35
1.31
1.34
1.40
1.39
1.35
1.31
1.32
1.36
1.40
1.38
1.33
1.33
1.34
1.41
1.37
1.33
1.30
1.33
1.38
1.37
1.33
1.29
1.33
1.32
1.35
1.33
1.29
1.32
1.32
1.37
1.34
1.30
1.27
1.30
1.37
1.38
1.37
1.33
1.38
1.37
1.41
1.38
1.33
1.36
1.36
1.41
1.38
1.34
1.32
1.35
1.40
1.38
1.33
1.28
1.32
1.31
1.37
1.34
1.42
1.55
1.76
1.85
1.91
1.88
1.84
1.82
1.83
1.86
1.92
1.90
1.97
1.99
2.11
2.06
2.08
2.17
2.16
2.21
2.18
2.19
2.19
2.17
2.14
2.09
2.09
2.10
2.24
2.18
2.15
2.13
2.24
2.30
2.26
2.22
2.33
2.42
2.55
2.56
2.48
2.63
2.79
2.90
3.01
2.94
2.89
2.95
3.00
3.10
3.09
3.00
2.98
2.98
3.06
3.13
3.05
3.05
3.11
3.12
3.28
3.24
3.19
3.24
3.28
3.33
3.25
3.19
3.29
3.35
3.32
3.33
3.27
3.24
3.31
3.41
3.54
3.48
3.39
3.39
3.38
3.45
3.46
3.41
3.43
3.46
3.51
3.57
3.47
3.38
3.35
3.39
3.44
3.32
3.28
3.34
3.38
3.48
3.49
3.40
3.43
3.47
3.50
3.52
3.45
3.42
3.41
3.35
3.48
3.43
3.34
3.33
3.32
3.40
3.33
3.25
3.28
3.29
3.30
3.36
3.34
3.30
3.38
3.43
3.57
3.50
3.42
3.44
3.43
3.48
3.43
3.33
3.33
3.32
3.31
3.34
3.25
3.21
3.21
3.20
3.28
3.18
3.12
3.13
3.11
3.16
3.13
3.04
3.03
3.02
3.03
3.05
2.96
2.91
2.91
2.90
2.98
2.89
2.82
2.80
2.78
2.83
2.79
2.72
2.69
