1.02

1.02

1.01

1.00

1.00

1.00

0.99

0.99

0.99

0.99

1.01

1.01

1.01

1.00

1.05

1.04

1.02

0.98

0.99

1.02

1.03

1.03

0.99

1.00

1.01

1.04

1.04

1.00

1.00

1.00

1.04

1.04

1.01

0.97

0.99

1.01

1.03

1.02

0.98

1.00

1.01

1.04

1.03

1.00

1.00

1.00

1.04

1.04

1.02

0.99

1.00

1.03

1.04

1.04

1.00

1.01

1.02

1.05

1.04

1.01

1.01

1.01

1.05

1.05

1.03

0.99

1.01

1.02

1.04

1.03

1.00

1.01

1.01

1.04

1.03

1.00

1.00

1.00

1.04

1.04

1.02

0.98

0.99

1.02

1.03

1.02

0.99

0.99

1.00

1.03

1.03

1.00

0.99

1.00

1.04

1.04

1.01

0.98

0.99

1.01

1.03

1.02

0.99

1.01

1.01

1.03

1.03

1.00

0.99

1.00

1.03

1.03

1.01

0.98

0.99

1.02

1.03

1.03

0.99

1.00

1.01

1.04

1.03

1.01

1.00

1.00

1.04

1.04

1.02

0.99

1.00

1.02

1.04

1.04

1.00

1.01

1.02

1.05

1.05

1.02

1.00

1.01

1.05

1.05

1.03

0.99

1.01

1.02

1.04

1.03

1.00

1.01

1.01

1.04

1.03

1.00

0.99

1.00

1.05

1.04

1.02

0.99

1.00

1.02

1.04

1.04

1.00

1.01

1.02

1.05

1.04

1.01

1.00

1.01

1.05

1.04

1.02

0.99

1.00

1.02

1.03

1.03

0.99

1.00

1.01

1.04

1.03

1.00

0.98

0.99

1.03

1.03

1.01

0.98

0.99

1.01

1.03

1.03

1.00

1.00

1.01

1.05

1.04

1.04

1.07

1.10

1.11

1.21

1.41

1.50

1.52

1.56

1.77

2.14

2.21

2.28

2.34

2.34

2.31

2.25

2.19

2.17

2.22

2.19

2.11

2.04

1.99

1.93

1.90

1.89

1.83

1.80

1.76

1.75

1.79

1.76

1.72

1.71

1.74

1.70

1.64

1.57

1.55

1.56

1.55

1.52

1.47

1.46

1.44

1.46

1.43

1.39

1.35

1.35

1.38

1.35

1.32

1.27

1.27

1.28

1.29

1.27

1.22

1.22

1.22

1.25

1.23

1.19

1.17

1.17

1.21

1.20

1.16

1.12

1.12

1.15

1.17

1.14

1.10

1.10

1.11

1.15

1.13

1.09

1.06

1.08

1.13

1.12

1.09

1.04

1.05

1.08

1.10

1.08

1.04

1.04

1.05

1.09

1.07

1.04

1.01

1.02

1.08

1.07

1.04

1.00

1.00

1.03

1.06

1.04

1.00

1.00

1.01

1.05

1.04

1.00

0.97

0.99

1.04

1.03

1.01

0.97

0.97

1.00

1.03

1.02

0.98

0.97

0.99

1.03

1.02

0.99

0.95

0.97

1.03

1.02

0.99

0.95

0.95

0.99

1.02

1.00

0.96

0.96

0.98

1.02

1.01

0.98

0.95

0.97

1.02

1.01

0.99

0.96

0.97

0.99

1.02

1.01

0.97

0.97

0.99

1.03

1.02

0.99

0.96

0.98

1.03

1.03

1.01

0.97

0.99

1.01

1.03

1.02

0.99

1.00

1.00

1.04

1.03

1.00

0.98

0.99

1.04

1.03

1.02

0.98

0.99

1.01

1.03

1.02

0.99

0.99

0.99

1.03

1.03

1.00

0.97

0.99

1.04

1.03

1.01

0.98

0.99

1.01

1.03

1.02

0.99

0.99

1.00

1.04

1.03

1.00

0.97

0.99

1.04

1.03

1.01

0.98

0.99

1.01

1.03

1.02

0.98

0.99

1.00

1.04

1.03

1.00

0.97

0.99

1.03

1.03

1.01

0.97

0.98

1.01

1.03

1.02

0.98

0.99

1.00

1.04

1.03

1.00

0.97

0.99

0.98

1.01

1.07

1.06

1.17

1.15

1.22

1.32

1.45

1.62

1.66

1.80

1.96

1.96

2.03

2.04

2.11

2.10

2.05

2.04

2.20

2.21

2.25

2.23

2.17

2.20

2.17

2.17

2.09

2.02

1.99

1.97

2.02

1.97

1.90

1.85

1.84

1.81

1.79

1.76

1.72

1.70

1.67

1.68

1.64

1.60

1.55

1.55

1.57

1.55

1.52

1.47

1.47

1.46

1.46

1.44

1.40

1.39

1.38

1.40

1.38

1.34

1.30

1.31

1.34

1.32

1.30

1.25

1.26

1.26

1.27

1.25

1.21

1.21

1.21

1.24

1.22

1.18

1.14

1.16

1.19

1.18

1.16

1.11

1.11

1.13

1.15

1.14

1.10

1.10

1.10

1.14

1.12

1.09

1.05

1.06

1.10

1.09

1.08

1.03

1.04

1.06

1.08

1.07

1.03

1.02

1.03

1.07

1.06

1.02

0.99

1.01

1.05

1.05

1.02

0.99

0.99

1.01

1.04

1.03

0.99

0.99

0.99

1.04

1.02

0.99

0.96

0.98

1.03

1.03

1.00

0.96

0.98

1.01

1.04

1.02

0.99

0.99

1.00

1.04

1.03

1.01

0.97

0.99

1.04

1.03

1.02

0.98

0.99

1.01

1.04

1.03

0.99

1.00

1.00

1.05

1.03

1.00

0.97

0.98

1.03

1.02

1.00

0.96

0.97

0.99

1.02

1.01

0.97

0.97

0.97

1.02

1.01

0.98

0.94

0.96

1.02

1.01

0.99

0.95

0.95

0.98

1.01

1.00

0.96

0.96

0.96

1.01

1.00

0.97

0.94

0.96

1.00

1.00

0.99

0.95

0.96

0.98

1.00

1.00

0.97

0.97

0.98

1.01

1.01

0.99

1.00

1.05

1.03

1.07

1.30

1.62

1.93

1.90

1.92

2.21

2.36

2.35

2.61

2.64

2.59

2.68

2.76

2.73

2.75

2.70

2.64

2.66

2.62

2.55

2.49

2.40

2.32

2.28

2.22

2.22

2.18

2.15

2.08

2.06

2.09

2.07

2.09

2.05

2.01

2.01

2.02

1.96

1.89

1.85

1.81

1.82

1.78

1.73

1.67

1.66

1.67

1.63

1.60

1.54

1.54

1.52

1.52

1.50

1.45

1.43

1.42

1.44

1.41

1.37

1.32

1.33

1.35

1.33

1.30

1.26

1.26

1.27

1.28

1.26

1.22

1.21

1.20

1.23

1.21

1.18

1.13

1.14

1.17

1.17

1.15

1.11

1.12

1.13

1.15

1.14

1.10

1.10

1.09

1.14

1.13

1.10

1.07

1.08

1.11

1.11

1.09

1.05

1.05

1.07

1.09

1.08

1.04

1.04

1.04

1.08

1.07

1.04

1.00

1.01

1.05

1.05

1.04

1.00

1.01

1.02

1.05

1.04

1.00

1.00

1.00

1.04

1.03

1.00

0.96

0.97

1.03

1.03

1.01

0.97

0.97

0.99

1.02

1.01

0.98

0.97

0.97

1.03

1.01

0.98

0.94

0.95

1.00

1.00

0.99

0.95

0.96

0.98

1.01

1.00

0.97

0.97

0.97

1.02

1.01

0.98

0.95

0.96

1.00

1.01

0.99

0.96

0.96

0.98

1.01

1.00

0.97

0.97

0.97

1.02

1.01

0.98

0.95

0.96

1.00

1.01

0.99

0.96

0.96

0.98

1.01

1.00

0.97

0.96

0.96

1.01

1.00

0.97

0.93

0.94

0.99

1.00

0.98

0.95

0.95

0.97

1.00

0.99

0.96

0.96

0.96

1.02

1.00

0.98

0.94

0.95

0.99

0.99

0.98

0.95

0.96

0.98

1.00

1.00

0.97

0.98

0.97

0.98

1.13

1.27

1.41

1.58

1.74

1.94

2.09

2.01

2.05

2.24

2.28

2.50

2.48

2.51

2.70

2.76

2.70

2.61

2.54

2.55

2.68

2.71

2.70

2.74

2.79

2.74

2.67

2.60

2.52

2.58

2.61

2.57

2.54

2.49

2.53

2.48

2.48

2.43

2.38

2.28

2.24

2.19

2.17

2.12

2.05

2.01

1.96

1.96

1.91

1.86

1.80

1.78

1.77

1.75

1.72

1.66

1.65

1.62

1.62

1.60

1.55

1.53

1.51

1.52

1.50

1.46

1.41

1.41

1.42

1.40

1.38

1.33

1.32

1.32

1.33

1.31

1.28

1.27

1.26

1.30

1.28

1.25

1.20

1.21

1.22

1.23

1.21

1.17

1.16

1.17

1.18

1.17

1.13

1.12

1.12

1.15

1.14

1.11

1.08

1.08

1.10

1.11

1.10

1.07

1.07

1.08

1.11

1.09

1.06

1.05

1.05

1.10

1.09

1.06

1.02

1.03

1.06

1.08

1.06

1.02

1.01

1.03

1.07

1.05

1.01

1.00

1.00

1.05

1.04

1.01

0.97

0.97

1.01

1.02

1.01

0.97

0.98

0.99

1.03

1.02

0.98

0.97

0.98

1.02

1.01

0.99

0.96

0.97

0.99

1.01

1.00

0.97

0.98

0.99

1.02

1.01

0.98

0.97

0.98

1.02

1.02

0.99

0.96

0.98

1.00

1.01

1.01

0.98

0.99

1.00

1.03

1.03

1.00

0.99

1.00

1.04

1.04

1.02

0.98

1.00

1.02

1.03

1.03

1.00

1.01

1.01

1.04

1.04

1.01

1.00

1.01

1.05

1.04

1.02

0.99

1.00

1.02

1.04

1.03

1.00

1.01

1.02

1.05

1.04

1.01

1.00

1.00

1.05

1.04

1.02

0.98

1.03

1.03

1.06

1.19

1.26

1.46

1.70

1.85

2.02

2.11

2.15

2.20

2.19

2.27

2.52

2.60

2.62

2.70

2.77

2.70

2.68

2.65

2.67

2.70

2.63

2.53

2.47

2.42

2.39

2.34

2.27

2.19

2.29

2.32

2.25

2.19

2.14

2.17

2.17

2.23

2.17

2.10

2.03

2.00

1.99

1.95

1.88

1.81

1.79

1.77

1.76

1.73

1.67

1.66

1.63

1.63

1.61

1.57

1.54

1.53

1.54

1.52

1.49

1.45

1.45

1.44

1.44

1.43

1.39

1.38

1.37

1.37

1.36

1.32

1.30

1.30

1.32

1.31

1.28

1.24

1.25

1.25

1.26

1.25

1.21

1.21

1.20

1.22

1.21

1.18

1.16

1.17

1.20

1.18

1.16

1.12

1.13

1.13

1.14

1.12

1.09

1.10

1.11

1.14

1.13

1.09

1.07

1.09

1.12

1.11

1.09

1.05

1.06

1.08

1.10

1.09

1.05

1.05

1.06

1.10

1.09

1.05

1.02

1.03

1.09

1.08

1.05

1.00

1.01

1.04

1.06

1.05

1.01

1.01

1.02

1.06

1.04

1.01

0.98

0.99

1.04

1.03

1.00

0.97

0.97

1.00

1.02

1.01

0.97

0.97

0.98

1.02

1.01

0.97

0.94

0.96

1.01

1.01

0.98

0.95

0.95

0.98

1.01

1.00

0.96

0.97

0.98

1.01

1.00

0.98

0.95

0.97

1.01

1.01

0.99

0.96

0.98

0.99

1.01

1.01

0.99

1.00

1.00

1.03

1.04

1.01

0.99

1.01

1.04

1.04

1.03

1.01

1.03

1.04

1.05

1.06

1.04

1.06

1.05

1.07

1.07

1.06

1.04

1.06

1.08

1.08

1.08

1.06

1.08

1.08

1.09

1.09

1.07

1.09

1.08

1.10

1.10

1.09

1.07

1.09

1.11

1.11

1.11

1.08

1.10

1.10

1.11

1.11

1.09

1.10

1.10

1.12

1.13

1.14

1.17

1.20

1.23

1.22

1.25

1.23

1.23

1.26

1.28

1.40

1.62

1.85

1.89

1.88

1.98

1.98

1.95

1.98

1.98

2.02

2.17

2.17

2.16

2.12

2.10

2.12

2.27

2.31

2.29

2.33

2.29

2.29

2.27

2.27

2.26

2.30

2.29

2.24

2.20

2.21

2.17

2.15

2.12

2.11

2.05

2.03

1.95

1.88

1.81

1.79

1.81

1.77

1.72

1.66

1.64

1.63

1.63

1.60

1.54

1.52

1.50

1.52

1.49

1.44

1.39

1.39

1.42

1.40

1.36

1.32

1.31

1.31

1.32

1.30

1.26

1.25

1.25

1.28

1.26

1.23

1.19

1.20

1.25

1.23

1.21

1.16

1.16

1.18

1.20

1.18

1.13

1.12

1.12

1.16

1.14

1.10

1.06

1.08

1.13

1.12

1.09

1.06

1.06

1.08

1.10

1.09

1.05

1.05

1.05

1.09

1.08

1.05

1.01

1.03

1.08

1.07

1.05

1.01

1.01

1.04

1.07

1.06

1.02

1.02

1.02

1.07

1.06

1.02

0.98

1.00

1.04

1.04

1.02

0.98

0.98

1.00

1.03

1.02

0.98

0.98

0.98

1.03

1.01

0.98

0.95

0.97

1.01

1.01

0.99

0.95

0.96

0.98

1.01

1.00

0.96

0.97

0.97

1.02

1.00

0.97

0.94

0.96

1.01

1.00

0.99

0.95

0.96

0.98

1.00

0.99

0.96

0.97

0.97

1.01

1.00

0.97

0.94

0.96

1.01

1.00

0.99

0.95

0.96

0.98

1.01

1.00

0.98

0.98

0.98

1.03

1.02

0.99

0.95

0.97

1.02

1.02

1.00

0.97

0.98

0.99

1.02

1.01

0.98

0.98

0.98

1.03

1.02

0.99

0.95

0.97

1.02

1.01

1.00

0.96

0.97

0.99

1.02

1.01

0.98

0.98

0.98

1.03

1.02

0.99

0.95

0.97

1.01

1.01

1.00

0.97

0.98

1.00

1.02

1.01

0.98

0.99

0.99

1.03

1.02

0.99

0.96

0.98

1.02

1.01

1.00

0.97

0.98

0.99

1.01

1.01

0.98

0.99

0.99

1.03

1.02

1.00

0.96

0.98

1.02

1.02

1.01

0.98

1.00

1.00

1.03

1.05

1.06

1.11

1.10

1.09

1.16

1.17

1.17

1.16

1.19

1.38

1.58

1.55

1.76

1.80

1.92

1.98

2.00

1.96

2.05

2.22

2.21

2.20

2.29

2.29

2.31

2.29

2.20

2.12

2.10

2.04

2.01

2.02

1.97

1.96

1.93

1.95

1.93

1.91

1.84

1.82

1.84

1.80

1.76

1.70

1.68

1.66

1.66

1.63

1.58

1.56

1.54

1.55

1.52

1.48

1.43

1.42

1.44

1.42

1.39

1.34

1.34

1.34

1.35

1.33

1.29

1.28

1.27

1.29

1.27

1.23

1.19

1.20

1.21

1.21

1.19

1.14

1.15

1.16

1.19

1.18

1.16

1.15

1.14

1.18

1.16

1.12

1.08

1.09

1.13

1.14

1.11

1.07

1.07

1.09

1.11

1.09

1.06

1.05

1.05

1.09

1.07

1.05

1.01

1.02

1.06

1.06

1.05

1.01

1.02

1.03

1.06

1.05

1.02

1.02

1.01

1.05

1.04

1.02

0.98

0.99

1.02

1.03

1.02

0.99

1.00

1.01

1.03

1.03

1.00

1.00

1.00

1.04

1.03

1.00

0.97

0.99

1.02

1.02

1.02

0.98

0.99

1.01

1.03

1.03

1.00

0.99

1.00

1.03

1.03

1.01

0.97

0.99

1.02

1.03

1.02

0.98

1.00

1.01

1.04

1.03

1.00

1.00

0.99

1.04

1.03

1.01

0.97

0.98

1.01

1.02

1.01

0.97

0.98

0.99

1.02

1.01

0.98

0.98

0.98

1.03

1.02

0.99

0.96

0.97

1.00

1.01

1.00

0.96

0.97

0.98

1.02

1.01

0.97

0.97

0.97

1.02

1.01

0.98

0.94

0.95

0.99

1.00

0.99

0.95

0.96

0.97

1.01

1.00

0.97

0.96

0.97

1.01

1.01

0.98

0.95

0.95

0.99

1.01

0.99

0.96

0.96

0.98

1.02

1.00

0.97

0.96

0.97

1.02

1.02

1.02

0.98

0.99

0.98

1.00

1.02

1.00

1.08

1.25

1.31

1.33

1.37

1.44

1.73

1.86

2.08

2.18

2.21

2.19

2.18

2.23

2.28

2.48

2.63

2.60

2.75

2.76

2.82

2.78

2.84

2.98

2.92

2.83

2.78

2.74

2.77

2.73

2.63

2.53

2.50

2.45

2.45

2.41

2.40

2.35

2.30

2.31

2.24

2.17

2.08

2.03

2.02

2.00

1.94

1.87

1.84

1.81

1.81

1.77

1.71

1.67

1.65

1.66

1.64

1.58

1.53

1.52

1.52

1.52

1.50

1.46

1.44

1.44

1.45

1.43

1.38

1.35

1.35

1.37

1.35

1.31

1.27

1.27

1.27

1.28

1.28

1.23

1.22

1.22

1.24

1.22

1.18

1.16

1.16

1.20

1.18

1.15

1.11

1.11

1.13

1.14

1.13

1.09

1.09

1.09

1.11

1.11

1.08

1.06

1.06

1.10

1.09

1.07

1.03

1.03

1.06

1.07

1.06

1.02

1.03

1.04

1.07

1.06

1.02

1.01

1.02

1.06

1.05

1.02

0.99

1.00

1.02

1.03

1.02

1.00

1.01

1.02

1.06

1.06

1.02

1.00

1.02

1.06

1.06

1.03

1.00

1.00

1.03

1.05

1.04

1.01

1.01

1.03

1.05

1.04

1.02

1.00

1.01

1.05

1.05

1.03

0.99

1.01

1.02

1.04

1.04

1.01

1.02

1.02

1.05

1.05

1.03

1.02

1.03

1.06

1.05

1.05

1.02

1.04

1.04

1.06

1.06

1.04

1.05

1.05

1.08

1.08

1.06

1.04

1.06

1.09

1.09

1.08

1.06

1.08

1.08

1.09

1.09

1.07

1.08

1.08

1.09

1.10

1.08

1.06

1.07

1.09

1.09

1.08

1.05

1.07

1.07

1.09

1.09

1.06

1.07

1.07

1.09

1.09

1.07

1.05

1.06

1.09

1.09

1.07

1.04

1.05

1.06

1.08

1.08

1.05

1.07

1.07

1.09

1.09

1.07

1.04

1.06

1.09

1.09

1.07

1.04

1.07

1.07

1.09

1.08

1.05

1.06

1.05

1.08

1.07

1.05

1.02

1.04

1.08

1.07

1.05

1.02

1.03

1.04

1.06

1.05

1.02

1.03

1.03

1.06

1.06

1.03

1.00

1.02

1.06

1.05

1.03

0.99

1.00

0.97

1.01

1.05

1.11

1.22

1.25

1.31

1.30

1.30

1.45

1.55

1.54

1.87

2.22

2.33

2.36

2.64

2.78

2.77

2.87

2.90

2.91

2.88

2.86

2.91

2.99

3.06

3.03

2.97

2.86

2.78

2.77

2.72

2.78

2.75

2.69

2.67

2.59

2.56

2.53

2.50

2.59

2.68

2.81

2.78

2.68

2.58

2.51

2.48

2.45

2.38

2.28

2.22

2.18

2.18

2.11

2.04

1.96

1.94

1.95

1.90

1.85

1.77

1.74

1.74

1.73

1.69

1.63

1.60

1.58

1.58

1.55

1.49

1.43

1.43

1.47

1.44

1.41

1.37

1.35

1.37

1.38

1.35

1.31

1.30

1.30

1.34

1.31

1.27

1.22

1.23

1.26

1.24

1.21

1.16

1.17

1.18

1.20

1.18

1.14

1.13

1.14

1.17

1.16

1.12

1.09

1.11

1.15

1.15

1.13

1.09

1.09

1.11

1.13

1.12

1.09

1.08

1.08

1.13

1.11

1.07

1.04

1.06

1.10

1.09

1.06

1.02

1.03

1.04

1.08

1.06

1.02

1.01

1.02

1.08

1.05

1.02

0.98

0.99

1.05

1.04

1.01

0.98

0.99

1.02

1.04

1.03

0.99

1.00

1.00

1.05

1.03

1.01

0.97

0.99

1.03

1.02

1.01

0.98

0.99

1.00

1.02

1.02

0.98

0.99

0.99

1.03

1.03

1.00

0.97

0.99

1.02

1.02

1.00

0.97

0.98

0.99

1.02

1.01

0.98

0.99

0.99

1.03

1.02

1.00

0.97

0.99

1.03

1.02

1.02

0.99

1.01

1.01

1.03

1.03

1.01

1.02

1.01

1.05

1.04

1.03

1.00

1.02

1.05

1.05

1.04

1.01

1.03

1.03

1.05

1.05

1.02

1.02

1.02

1.06

1.05

1.03

1.00

1.02

1.05

1.05

1.04

1.02

1.03

1.04

1.06

1.05

1.02

1.03

1.03

1.06

1.05

1.02

0.99

1.01

1.04

1.04

1.03

1.00

1.02

1.02

1.04

1.04

1.02

1.02

1.03

1.06

1.06

1.04

1.01

1.03

1.06

1.06

1.05

1.01

1.03

1.04

1.06

1.06

1.04

1.04

1.03

1.07

1.06

1.04

1.00

1.02

1.06

1.06

1.05

1.02

1.05

1.03

1.03

1.05

1.05

1.16

1.30

1.31

1.55

1.74

1.74

1.74

1.74

1.69

1.65

1.60

1.60

1.61

1.57

1.55

1.71

1.77

2.16

2.22

2.25

2.21

2.16

2.15

2.14

2.07

2.11

2.10

2.13

2.14

2.11

2.12

2.11

2.41

2.45

2.59

2.65

2.57

2.51

2.50

2.44

2.42

2.37

2.29

2.24

2.21

2.20

2.14

2.05

2.01

1.97

2.00

1.95

1.88

1.81

1.78

1.80

1.77

1.73

1.67

1.64

1.62

1.61

1.58

1.52

1.51

1.49

1.55

1.51

1.46

1.40

1.39

1.42

1.41

1.38

1.33

1.33

1.33

1.35

1.34

1.30

1.28

1.26

1.27

1.27

1.23

1.19

1.18

1.22

1.21

1.21

1.19

1.20

1.22

1.26

1.24

1.20

1.18

1.17

1.21

1.19

1.16

1.11

1.11

1.14

1.14

1.12

1.08

1.08

1.09

1.12

1.10

1.08

1.08

1.08

1.12

1.10

1.07

1.03

1.05

1.08

1.09

1.07

1.03

1.03

1.04

1.07

1.07

1.03

1.03

1.03

1.08

1.07

1.04

1.00

1.01

1.06

1.07

1.05

1.01

1.01

1.03

1.06

1.05

1.01

1.00

1.00

1.05

1.04

1.01

0.97

0.98

1.02

1.03

1.01

0.98

0.97

0.99

1.02

1.01

0.97

0.97

0.97

1.02

1.01

0.98

0.94

0.96

0.99

1.00

0.98

0.95

0.95

0.96

0.99

0.98

0.95

0.94

0.95

1.00

0.99

0.97

0.93

0.95

0.98

0.99

0.98

0.95

0.95

0.97

1.00

1.00

0.97

0.96

0.96

1.02

1.01

0.99

0.95

0.96

0.98

1.00

0.98

0.94

0.95

0.96

1.00

1.00

0.97

0.97

0.97

1.01

1.01

0.98

0.95

0.96

1.00

1.02

1.00

0.96

0.97

0.98

1.02

1.01

0.97

0.97

0.96

1.03

1.03

1.08

1.12

1.15

1.16

1.16

1.13

1.34

1.58

1.56

1.53

1.48

1.53

1.76

1.83

2.08

2.24

2.22

2.14

2.10

2.11

2.09

2.09

2.08

2.09

2.03

2.00

1.94

1.90

1.88

1.88

1.87

1.99

2.04

1.97

1.94

1.99

2.00

1.95

1.90

1.88

1.86

1.87

1.82

1.76

1.72

1.71

1.74

1.71

1.65

1.59

1.56

1.58

1.58

1.54

1.49

1.48

1.47

1.50

1.50

1.46

1.44

1.44

1.50

1.47

1.41

1.36

1.34

1.36

1.37

1.36

1.31

1.30

1.33

1.40

1.35

1.30

1.28

1.28

1.34

1.32

1.28

1.24

1.23

1.26

1.29

1.25

1.20

1.18

1.20

1.23

1.21

1.18

1.15

1.16

1.22

1.20

1.17

1.12

1.12

1.14

1.15

1.14

1.09

1.09

1.11

1.14

1.14

1.10

1.08

1.09

1.13

1.12

1.10

1.07

1.08

1.10

1.12

1.10

1.07

1.08

1.09

1.13

1.11

1.07

1.05

1.06

1.11

1.10

1.07

1.03

1.03

1.06

1.09

1.07

1.03

1.03

1.05

1.09

1.08

1.04

1.02

1.03

1.09

1.08

1.04

1.01

1.01

1.04

1.06

1.04

1.00

1.00

1.03

1.09

1.06

1.02

0.99

1.00

1.06

1.05

1.02

0.98

0.99

1.00

1.04

1.01

0.97

0.97

0.98

1.02

1.00

0.96

0.93

0.95

1.02

1.01

0.98

0.94

0.94

0.98

1.01

0.99

0.95

0.94

0.96

1.00

0.98

0.95

0.92

0.93

0.99

0.99

0.96

0.92

0.93

0.96

0.99

0.97

0.93

0.94

0.96

1.02

1.00

0.96

0.94

0.95

1.00

1.00

0.98

0.94

0.94

0.98

1.01

0.99

0.96

0.96

0.98

1.02

1.01

0.97

0.94

0.96

1.01

1.01

0.97

0.94

0.94

0.97

1.00

0.98

0.94

0.94

0.96

1.01

0.99

0.96

0.96

1.02

1.04

1.06

1.08

1.09

1.22

1.34

1.63

1.69

1.78

1.77

1.81

2.00

2.21

2.28

2.26

2.38

2.45
